,Time,SNUADC/PLETH
4145765,8292.468,39.5293
4145766,8292.470000000001,39.9242
4145767,8292.472,39.9242
4145768,8292.474,39.9242
4145769,8292.476,39.9242
4145770,8292.478000000001,39.9242
4145771,8292.48,39.5293
4145772,8292.482,39.9242
4145773,8292.484,39.9242
4145774,8292.486,39.9242
4145775,8292.488000000001,39.9242
4145776,8292.49,39.9242
4145777,8292.492,39.9242
4145778,8292.494,39.9242
4145779,8292.496000000001,39.5293
4145780,8292.498,39.9242
4145781,8292.5,39.5293
4145782,8292.502,39.9242
4145783,8292.504,39.9242
4145784,8292.506000000001,39.9242
4145785,8292.508,39.9242
4145786,8292.51,39.9242
4145787,8292.512,39.9242
4145788,8292.514000000001,39.5293
4145789,8292.516,39.9242
4145790,8292.518,39.9242
4145791,8292.52,39.9242
4145792,8292.522,39.9242
4145793,8292.524000000001,39.9242
4145794,8292.526,39.5293
4145795,8292.528,39.5293
4145796,8292.53,39.5293
4145797,8292.532000000001,39.5293
4145798,8292.534,39.5293
4145799,8292.536,39.5293
4145800,8292.538,39.5293
4145801,8292.54,39.5293
4145802,8292.542000000001,39.5293
4145803,8292.544,39.5293
4145804,8292.546,39.5293
4145805,8292.548,39.5293
4145806,8292.550000000001,39.1343
4145807,8292.552,39.1343
4145808,8292.554,39.1343
4145809,8292.556,39.1343
4145810,8292.558,39.1343
4145811,8292.560000000001,39.1343
4145812,8292.562,39.1343
4145813,8292.564,39.1343
4145814,8292.566,39.1343
4145815,8292.568000000001,39.1343
4145816,8292.57,39.1343
4145817,8292.572,39.1343
4145818,8292.574,39.1343
4145819,8292.576000000001,39.1343
4145820,8292.578,39.1343
4145821,8292.58,39.1343
4145822,8292.582,39.1343
4145823,8292.584,38.7393
4145824,8292.586000000001,38.7393
4145825,8292.588,38.7393
4145826,8292.59,38.7393
4145827,8292.592,38.7393
4145828,8292.594000000001,38.7393
4145829,8292.596,39.1343
4145830,8292.598,38.7393
4145831,8292.6,38.7393
4145832,8292.602,38.3443
4145833,8292.604000000001,38.7393
4145834,8292.606,38.7393
4145835,8292.608,38.7393
4145836,8292.61,38.7393
4145837,8292.612000000001,38.7393
4145838,8292.614,38.7393
4145839,8292.616,38.7393
4145840,8292.618,38.7393
4145841,8292.62,38.7393
4145842,8292.622000000001,38.7393
4145843,8292.624,38.3443
4145844,8292.626,38.7393
4145845,8292.628,38.7393
4145846,8292.630000000001,38.7393
4145847,8292.632,38.7393
4145848,8292.634,38.7393
4145849,8292.636,38.7393
4145850,8292.638,38.7393
4145851,8292.640000000001,38.7393
4145852,8292.642,38.7393
4145853,8292.644,38.7393
4145854,8292.646,38.7393
4145855,8292.648000000001,38.3443
4145856,8292.65,38.7393
4145857,8292.652,38.7393
4145858,8292.654,38.3443
4145859,8292.656,38.7393
4145860,8292.658000000001,38.7393
4145861,8292.66,38.3443
4145862,8292.662,38.3443
4145863,8292.664,38.7393
4145864,8292.666000000001,38.7393
4145865,8292.668,38.3443
4145866,8292.67,38.7393
4145867,8292.672,38.7393
4145868,8292.674,38.7393
4145869,8292.676000000001,38.7393
4145870,8292.678,38.7393
4145871,8292.68,38.3443
4145872,8292.682,38.7393
4145873,8292.684000000001,38.7393
4145874,8292.686,38.7393
4145875,8292.688,38.7393
4145876,8292.69,38.7393
4145877,8292.692000000001,38.7393
4145878,8292.694,38.7393
4145879,8292.696,38.7393
4145880,8292.698,38.7393
4145881,8292.7,38.3443
4145882,8292.702000000001,38.7393
4145883,8292.704,38.7393
4145884,8292.706,38.7393
4145885,8292.708,38.7393
4145886,8292.710000000001,38.7393
4145887,8292.712,38.7393
4145888,8292.714,38.7393
4145889,8292.716,38.7393
4145890,8292.718,38.7393
4145891,8292.720000000001,38.3443
4145892,8292.722,38.7393
4145893,8292.724,38.7393
4145894,8292.726,38.7393
4145895,8292.728000000001,38.7393
4145896,8292.73,38.7393
4145897,8292.732,38.3443
4145898,8292.734,38.7393
4145899,8292.736,38.7393
4145900,8292.738000000001,38.7393
4145901,8292.74,38.7393
4145902,8292.742,38.7393
4145903,8292.744,38.7393
4145904,8292.746000000001,38.7393
4145905,8292.748,38.7393
4145906,8292.75,38.7393
4145907,8292.752,38.7393
4145908,8292.754,38.7393
4145909,8292.756000000001,38.3443
4145910,8292.758,38.3443
4145911,8292.76,38.3443
4145912,8292.762,38.3443
4145913,8292.764000000001,38.7393
4145914,8292.766,38.7393
4145915,8292.768,38.7393
4145916,8292.77,38.7393
4145917,8292.772,38.7393
4145918,8292.774000000001,38.7393
4145919,8292.776,38.7393
4145920,8292.778,38.7393
4145921,8292.78,38.7393
4145922,8292.782000000001,38.7393
4145923,8292.784,38.7393
4145924,8292.786,38.7393
4145925,8292.788,38.7393
4145926,8292.79,38.7393
4145927,8292.792000000001,38.7393
4145928,8292.794,38.7393
4145929,8292.796,38.7393
4145930,8292.798,39.1343
4145931,8292.800000000001,38.7393
4145932,8292.802,39.1343
4145933,8292.804,38.7393
4145934,8292.806,39.1343
4145935,8292.808,39.1343
4145936,8292.810000000001,39.1343
4145937,8292.812,39.1343
4145938,8292.814,39.1343
4145939,8292.816,39.1343
4145940,8292.818000000001,39.1343
4145941,8292.82,39.1343
4145942,8292.822,39.1343
4145943,8292.824,39.1343
4145944,8292.826000000001,39.1343
4145945,8292.828,39.1343
4145946,8292.83,39.1343
4145947,8292.832,39.1343
4145948,8292.834,39.1343
4145949,8292.836000000001,39.1343
4145950,8292.838,39.1343
4145951,8292.84,39.1343
4145952,8292.842,39.1343
4145953,8292.844000000001,39.1343
4145954,8292.846,39.1343
4145955,8292.848,39.1343
4145956,8292.85,39.1343
4145957,8292.852,39.5293
4145958,8292.854000000001,39.5293
4145959,8292.856,39.5293
4145960,8292.858,39.1343
4145961,8292.86,39.1343
4145962,8292.862000000001,39.5293
4145963,8292.864,39.5293
4145964,8292.866,39.5293
4145965,8292.868,39.5293
4145966,8292.87,39.5293
4145967,8292.872000000001,39.5293
4145968,8292.874,39.5293
4145969,8292.876,39.1343
4145970,8292.878,39.5293
4145971,8292.880000000001,39.1343
4145972,8292.882,39.1343
4145973,8292.884,39.5293
4145974,8292.886,39.5293
4145975,8292.888,39.5293
4145976,8292.890000000001,39.5293
4145977,8292.892,39.5293
4145978,8292.894,39.5293
4145979,8292.896,39.5293
4145980,8292.898000000001,39.5293
4145981,8292.9,39.5293
4145982,8292.902,39.5293
4145983,8292.904,39.9242
4145984,8292.906,39.9242
4145985,8292.908000000001,39.9242
4145986,8292.91,39.9242
4145987,8292.912,39.9242
4145988,8292.914,40.3192
4145989,8292.916000000001,40.3192
4145990,8292.918,40.3192
4145991,8292.92,40.7142
4145992,8292.922,40.7142
4145993,8292.924,40.7142
4145994,8292.926000000001,40.7142
4145995,8292.928,40.7142
4145996,8292.93,41.1092
4145997,8292.932,41.1092
4145998,8292.934000000001,41.5042
4145999,8292.936,41.5042
4146000,8292.938,41.5042
4146001,8292.94,41.5042
4146002,8292.942000000001,41.5042
4146003,8292.944,41.8992
4146004,8292.946,41.8992
4146005,8292.948,42.2941
4146006,8292.95,42.2941
4146007,8292.952000000001,42.2941
4146008,8292.954,42.2941
4146009,8292.956,42.6891
4146010,8292.958,42.6891
4146011,8292.960000000001,42.6891
4146012,8292.962,43.0841
4146013,8292.964,43.0841
4146014,8292.966,43.0841
4146015,8292.968,43.4791
4146016,8292.970000000001,43.4791
4146017,8292.972,43.4791
4146018,8292.974,43.8741
4146019,8292.976,43.4791
4146020,8292.978000000001,43.4791
4146021,8292.98,43.8741
4146022,8292.982,43.8741
4146023,8292.984,43.8741
4146024,8292.986,43.8741
4146025,8292.988000000001,43.8741
4146026,8292.99,43.8741
4146027,8292.992,43.8741
4146028,8292.994,43.8741
4146029,8292.996000000001,43.8741
4146030,8292.998,43.8741
4146031,8293.0,43.8741
4146032,8293.002,43.8741
4146033,8293.004,44.269
4146034,8293.006000000001,44.269
4146035,8293.008,44.269
4146036,8293.01,44.269
4146037,8293.012,44.269
4146038,8293.014000000001,43.8741
4146039,8293.016,43.8741
4146040,8293.018,43.8741
4146041,8293.02,43.4791
4146042,8293.022,43.4791
4146043,8293.024000000001,43.4791
4146044,8293.026,43.4791
4146045,8293.028,43.4791
4146046,8293.03,43.4791
4146047,8293.032000000001,43.4791
4146048,8293.034,43.0841
4146049,8293.036,43.0841
4146050,8293.038,43.0841
4146051,8293.04,43.0841
4146052,8293.042000000001,43.0841
4146053,8293.044,43.0841
4146054,8293.046,43.0841
4146055,8293.048,42.6891
4146056,8293.050000000001,42.6891
4146057,8293.052,42.2941
4146058,8293.054,42.2941
4146059,8293.056,42.2941
4146060,8293.058,42.6891
4146061,8293.060000000001,42.2941
4146062,8293.062,42.2941
4146063,8293.064,41.8992
4146064,8293.066,41.8992
4146065,8293.068000000001,41.8992
4146066,8293.07,41.8992
4146067,8293.072,41.8992
4146068,8293.074,41.8992
4146069,8293.076000000001,41.5042
4146070,8293.078,41.8992
4146071,8293.08,41.8992
4146072,8293.082,41.5042
4146073,8293.084,41.5042
4146074,8293.086000000001,41.5042
4146075,8293.088,41.5042
4146076,8293.09,41.5042
4146077,8293.092,41.1092
4146078,8293.094000000001,41.1092
4146079,8293.096,41.1092
4146080,8293.098,41.1092
4146081,8293.1,40.7142
4146082,8293.102,41.1092
4146083,8293.104000000001,40.7142
4146084,8293.106,40.7142
4146085,8293.108,40.7142
4146086,8293.11,40.7142
4146087,8293.112000000001,40.3192
4146088,8293.114,40.3192
4146089,8293.116,40.3192
4146090,8293.118,40.3192
4146091,8293.12,40.3192
4146092,8293.122000000001,40.3192
4146093,8293.124,40.3192
4146094,8293.126,39.9242
4146095,8293.128,39.9242
4146096,8293.130000000001,39.9242
4146097,8293.132,39.9242
4146098,8293.134,39.9242
4146099,8293.136,39.9242
4146100,8293.138,39.9242
4146101,8293.140000000001,39.9242
4146102,8293.142,39.9242
4146103,8293.144,39.9242
4146104,8293.146,39.5293
4146105,8293.148000000001,39.9242
4146106,8293.15,39.5293
4146107,8293.152,39.9242
4146108,8293.154,39.9242
4146109,8293.156,39.9242
4146110,8293.158000000001,39.5293
4146111,8293.16,39.5293
4146112,8293.162,39.5293
4146113,8293.164,39.5293
4146114,8293.166000000001,39.5293
4146115,8293.168,39.5293
4146116,8293.17,39.5293
4146117,8293.172,39.1343
4146118,8293.174,39.5293
4146119,8293.176000000001,39.5293
4146120,8293.178,39.5293
4146121,8293.18,39.5293
4146122,8293.182,39.5293
4146123,8293.184000000001,39.5293
4146124,8293.186,39.5293
4146125,8293.188,39.1343
4146126,8293.19,39.1343
4146127,8293.192000000001,39.1343
4146128,8293.194,39.5293
4146129,8293.196,39.5293
4146130,8293.198,39.1343
4146131,8293.2,39.1343
4146132,8293.202000000001,39.1343
4146133,8293.204,39.1343
4146134,8293.206,39.1343
4146135,8293.208,39.1343
4146136,8293.210000000001,39.1343
4146137,8293.212,39.1343
4146138,8293.214,39.1343
4146139,8293.216,39.1343
4146140,8293.218,39.1343
4146141,8293.220000000001,39.1343
4146142,8293.222,39.1343
4146143,8293.224,39.1343
4146144,8293.226,39.1343
4146145,8293.228000000001,39.1343
4146146,8293.23,39.5293
4146147,8293.232,39.5293
4146148,8293.234,39.5293
4146149,8293.236,39.5293
4146150,8293.238000000001,39.5293
4146151,8293.24,39.5293
4146152,8293.242,39.1343
4146153,8293.244,39.5293
4146154,8293.246000000001,39.5293
4146155,8293.248,39.5293
4146156,8293.25,39.5293
4146157,8293.252,39.5293
4146158,8293.254,39.5293
4146159,8293.256000000001,39.5293
4146160,8293.258,39.5293
4146161,8293.26,39.5293
4146162,8293.262,39.5293
4146163,8293.264000000001,39.5293
4146164,8293.266,39.5293
4146165,8293.268,39.9242
4146166,8293.27,39.9242
4146167,8293.272,39.5293
4146168,8293.274000000001,39.9242
4146169,8293.276,39.5293
4146170,8293.278,39.9242
4146171,8293.28,39.9242
4146172,8293.282000000001,39.9242
4146173,8293.284,39.9242
4146174,8293.286,39.9242
4146175,8293.288,39.9242
4146176,8293.29,39.9242
4146177,8293.292000000001,39.9242
4146178,8293.294,39.9242
4146179,8293.296,39.9242
4146180,8293.298,39.9242
4146181,8293.300000000001,39.9242
4146182,8293.302,39.5293
4146183,8293.304,39.9242
4146184,8293.306,39.9242
4146185,8293.308,39.9242
4146186,8293.310000000001,39.9242
4146187,8293.312,39.9242
4146188,8293.314,39.9242
4146189,8293.316,39.5293
4146190,8293.318000000001,39.5293
4146191,8293.32,39.5293
4146192,8293.322,39.5293
4146193,8293.324,39.5293
4146194,8293.326000000001,39.5293
4146195,8293.328,39.5293
4146196,8293.33,39.5293
4146197,8293.332,39.5293
4146198,8293.334,39.5293
4146199,8293.336000000001,39.5293
4146200,8293.338,39.5293
4146201,8293.34,39.1343
4146202,8293.342,39.1343
4146203,8293.344000000001,39.5293
4146204,8293.346,39.5293
4146205,8293.348,39.5293
4146206,8293.35,39.1343
4146207,8293.352,39.1343
4146208,8293.354000000001,39.1343
4146209,8293.356,39.1343
4146210,8293.358,39.1343
4146211,8293.36,39.1343
4146212,8293.362000000001,39.1343
4146213,8293.364,39.1343
4146214,8293.366,39.1343
4146215,8293.368,39.1343
4146216,8293.37,39.1343
4146217,8293.372000000001,39.1343
4146218,8293.374,39.1343
4146219,8293.376,39.1343
4146220,8293.378,38.7393
4146221,8293.380000000001,38.7393
4146222,8293.382,38.7393
4146223,8293.384,38.7393
4146224,8293.386,38.7393
4146225,8293.388,38.7393
4146226,8293.390000000001,38.7393
4146227,8293.392,38.7393
4146228,8293.394,38.7393
4146229,8293.396,38.7393
4146230,8293.398000000001,38.3443
4146231,8293.4,38.3443
4146232,8293.402,38.3443
4146233,8293.404,38.3443
4146234,8293.406,38.3443
4146235,8293.408000000001,38.3443
4146236,8293.41,38.3443
4146237,8293.412,38.3443
4146238,8293.414,37.9493
4146239,8293.416000000001,37.9493
4146240,8293.418,37.9493
4146241,8293.42,37.9493
4146242,8293.422,37.9493
4146243,8293.424,37.9493
4146244,8293.426000000001,37.9493
4146245,8293.428,37.9493
4146246,8293.43,37.9493
4146247,8293.432,37.9493
4146248,8293.434000000001,37.9493
4146249,8293.436,37.9493
4146250,8293.438,37.5543
4146251,8293.44,37.9493
4146252,8293.442000000001,37.9493
4146253,8293.444,37.9493
4146254,8293.446,37.9493
4146255,8293.448,37.9493
4146256,8293.45,37.9493
4146257,8293.452000000001,37.9493
4146258,8293.454,37.9493
4146259,8293.456,37.9493
4146260,8293.458,37.9493
4146261,8293.460000000001,37.9493
4146262,8293.462,37.9493
4146263,8293.464,37.9493
4146264,8293.466,37.5543
4146265,8293.468,37.5543
4146266,8293.470000000001,37.9493
4146267,8293.472,37.9493
4146268,8293.474,37.5543
4146269,8293.476,37.9493
4146270,8293.478000000001,37.9493
4146271,8293.48,37.9493
4146272,8293.482,37.9493
4146273,8293.484,37.9493
4146274,8293.486,37.9493
4146275,8293.488000000001,38.3443
4146276,8293.49,37.9493
4146277,8293.492,37.9493
4146278,8293.494,37.9493
4146279,8293.496000000001,37.9493
4146280,8293.498,37.9493
4146281,8293.5,38.3443
4146282,8293.502,38.3443
4146283,8293.504,38.3443
4146284,8293.506000000001,38.3443
4146285,8293.508,38.3443
4146286,8293.51,38.3443
4146287,8293.512,37.9493
4146288,8293.514000000001,38.3443
4146289,8293.516,38.3443
4146290,8293.518,38.3443
4146291,8293.52,38.3443
4146292,8293.522,38.3443
4146293,8293.524000000001,38.3443
4146294,8293.526,38.3443
4146295,8293.528,38.3443
4146296,8293.53,38.3443
4146297,8293.532000000001,38.3443
4146298,8293.534,38.3443
4146299,8293.536,38.3443
4146300,8293.538,38.3443
4146301,8293.54,38.7393
4146302,8293.542000000001,38.7393
4146303,8293.544,38.3443
4146304,8293.546,38.7393
4146305,8293.548,38.7393
4146306,8293.550000000001,38.7393
4146307,8293.552,38.7393
4146308,8293.554,38.7393
4146309,8293.556,38.7393
4146310,8293.558,38.7393
4146311,8293.560000000001,38.7393
4146312,8293.562,38.7393
4146313,8293.564,39.1343
4146314,8293.566,39.1343
4146315,8293.568000000001,38.7393
4146316,8293.57,39.1343
4146317,8293.572,39.1343
4146318,8293.574,38.7393
4146319,8293.576000000001,39.1343
4146320,8293.578,39.1343
4146321,8293.58,38.7393
4146322,8293.582,39.1343
4146323,8293.584,38.7393
4146324,8293.586000000001,38.7393
4146325,8293.588,38.7393
4146326,8293.59,38.7393
4146327,8293.592,38.7393
4146328,8293.594000000001,38.7393
4146329,8293.596,38.7393
4146330,8293.598,38.7393
4146331,8293.6,38.7393
4146332,8293.602,38.7393
4146333,8293.604000000001,38.7393
4146334,8293.606,38.7393
4146335,8293.608,38.7393
4146336,8293.61,38.3443
4146337,8293.612000000001,38.7393
4146338,8293.614,38.7393
4146339,8293.616,38.7393
4146340,8293.618,38.7393
4146341,8293.62,38.7393
4146342,8293.622000000001,38.7393
4146343,8293.624,38.7393
4146344,8293.626,38.7393
4146345,8293.628,38.7393
4146346,8293.630000000001,38.7393
4146347,8293.632,38.7393
4146348,8293.634,38.7393
4146349,8293.636,38.7393
4146350,8293.638,38.7393
4146351,8293.640000000001,38.7393
4146352,8293.642,38.7393
4146353,8293.644,38.7393
4146354,8293.646,38.7393
4146355,8293.648000000001,38.7393
4146356,8293.65,38.7393
4146357,8293.652,38.7393
4146358,8293.654,38.7393
4146359,8293.656,38.7393
4146360,8293.658000000001,38.3443
4146361,8293.66,38.3443
4146362,8293.662,38.7393
4146363,8293.664,38.3443
4146364,8293.666000000001,38.7393
4146365,8293.668,38.7393
4146366,8293.67,38.7393
4146367,8293.672,38.7393
4146368,8293.674,38.7393
4146369,8293.676000000001,38.7393
4146370,8293.678,38.7393
4146371,8293.68,38.7393
4146372,8293.682,38.7393
4146373,8293.684000000001,38.7393
4146374,8293.686,38.7393
4146375,8293.688,38.7393
4146376,8293.69,38.7393
4146377,8293.692000000001,38.7393
4146378,8293.694,38.7393
4146379,8293.696,38.7393
4146380,8293.698,38.7393
4146381,8293.7,38.7393
4146382,8293.702000000001,39.1343
4146383,8293.704,39.1343
4146384,8293.706,38.7393
4146385,8293.708,39.1343
4146386,8293.710000000001,39.1343
4146387,8293.712,39.1343
4146388,8293.714,39.1343
4146389,8293.716,39.1343
4146390,8293.718,39.1343
4146391,8293.720000000001,39.5293
4146392,8293.722,39.5293
4146393,8293.724,39.5293
4146394,8293.726,39.5293
4146395,8293.728000000001,39.5293
4146396,8293.73,39.5293
4146397,8293.732,39.5293
4146398,8293.734,39.5293
4146399,8293.736,39.5293
4146400,8293.738000000001,39.9242
4146401,8293.74,39.9242
4146402,8293.742,39.9242
4146403,8293.744,39.9242
4146404,8293.746000000001,39.9242
4146405,8293.748,39.9242
4146406,8293.75,39.9242
4146407,8293.752,39.9242
4146408,8293.754,40.3192
4146409,8293.756000000001,40.3192
4146410,8293.758,40.3192
4146411,8293.76,40.7142
4146412,8293.762,40.7142
4146413,8293.764000000001,40.7142
4146414,8293.766,40.7142
4146415,8293.768,41.1092
4146416,8293.77,41.1092
4146417,8293.772,41.5042
4146418,8293.774000000001,41.5042
4146419,8293.776,41.5042
4146420,8293.778,41.5042
4146421,8293.78,41.8992
4146422,8293.782000000001,41.8992
4146423,8293.784,41.8992
4146424,8293.786,41.8992
4146425,8293.788,42.2941
4146426,8293.79,42.2941
4146427,8293.792000000001,42.2941
4146428,8293.794,42.6891
4146429,8293.796,42.6891
4146430,8293.798,42.6891
4146431,8293.800000000001,42.6891
4146432,8293.802,42.6891
4146433,8293.804,43.0841
4146434,8293.806,43.0841
4146435,8293.808,43.0841
4146436,8293.810000000001,43.4791
4146437,8293.812,43.0841
4146438,8293.814,43.0841
4146439,8293.816,43.0841
4146440,8293.818000000001,43.0841
4146441,8293.82,43.0841
4146442,8293.822,43.4791
4146443,8293.824,43.4791
4146444,8293.826000000001,43.0841
4146445,8293.828,43.4791
4146446,8293.83,43.4791
4146447,8293.832,43.0841
4146448,8293.834,43.4791
4146449,8293.836000000001,43.0841
4146450,8293.838,43.4791
4146451,8293.84,43.0841
4146452,8293.842,43.0841
4146453,8293.844000000001,43.0841
4146454,8293.846,43.0841
4146455,8293.848,43.0841
4146456,8293.85,43.0841
4146457,8293.852,42.6891
4146458,8293.854000000001,42.6891
4146459,8293.856,42.6891
4146460,8293.858,42.6891
4146461,8293.86,42.6891
4146462,8293.862000000001,42.6891
4146463,8293.864,42.2941
4146464,8293.866,42.2941
4146465,8293.868,42.2941
4146466,8293.87,42.2941
4146467,8293.872000000001,42.2941
4146468,8293.874,41.8992
4146469,8293.876,41.8992
4146470,8293.878,41.8992
4146471,8293.880000000001,41.5042
4146472,8293.882,41.5042
4146473,8293.884,41.5042
4146474,8293.886,41.5042
4146475,8293.888,41.5042
4146476,8293.890000000001,41.1092
4146477,8293.892,41.1092
4146478,8293.894,41.1092
4146479,8293.896,41.1092
4146480,8293.898000000001,41.1092
4146481,8293.9,40.7142
4146482,8293.902,40.7142
4146483,8293.904,40.7142
4146484,8293.906,40.7142
4146485,8293.908000000001,40.3192
4146486,8293.91,40.7142
4146487,8293.912,40.3192
4146488,8293.914,40.3192
4146489,8293.916000000001,40.3192
4146490,8293.918,40.3192
4146491,8293.92,40.3192
4146492,8293.922,40.3192
4146493,8293.924,40.3192
4146494,8293.926000000001,40.3192
4146495,8293.928,39.9242
4146496,8293.93,39.9242
4146497,8293.932,39.9242
4146498,8293.934000000001,39.9242
4146499,8293.936,39.9242
4146500,8293.938,39.9242
4146501,8293.94,39.9242
4146502,8293.942000000001,39.9242
4146503,8293.944,39.9242
4146504,8293.946,39.9242
4146505,8293.948,39.5293
4146506,8293.95,39.5293
4146507,8293.952000000001,39.5293
4146508,8293.954,39.5293
4146509,8293.956,39.5293
4146510,8293.958,39.5293
4146511,8293.960000000001,39.5293
4146512,8293.962,39.5293
4146513,8293.964,39.5293
4146514,8293.966,39.5293
4146515,8293.968,39.5293
4146516,8293.970000000001,39.5293
4146517,8293.972,39.5293
4146518,8293.974,39.1343
4146519,8293.976,39.5293
4146520,8293.978000000001,39.1343
4146521,8293.98,39.5293
4146522,8293.982,39.1343
4146523,8293.984,39.1343
4146524,8293.986,39.1343
4146525,8293.988000000001,39.1343
4146526,8293.99,39.1343
4146527,8293.992,39.1343
4146528,8293.994,39.1343
4146529,8293.996000000001,39.1343
4146530,8293.998,39.1343
4146531,8294.0,38.7393
4146532,8294.002,39.1343
4146533,8294.004,39.1343
4146534,8294.006000000001,39.1343
4146535,8294.008,39.1343
4146536,8294.01,39.1343
4146537,8294.012,39.1343
4146538,8294.014000000001,38.7393
4146539,8294.016,38.7393
4146540,8294.018,38.7393
4146541,8294.02,38.7393
4146542,8294.022,38.7393
4146543,8294.024000000001,38.7393
4146544,8294.026,38.7393
4146545,8294.028,38.7393
4146546,8294.03,38.7393
4146547,8294.032000000001,38.7393
4146548,8294.034,38.3443
4146549,8294.036,38.3443
4146550,8294.038,38.7393
4146551,8294.04,38.3443
4146552,8294.042000000001,38.7393
4146553,8294.044,38.7393
4146554,8294.046,38.7393
4146555,8294.048,38.7393
4146556,8294.050000000001,38.7393
4146557,8294.052,38.7393
4146558,8294.054,38.7393
4146559,8294.056,38.7393
4146560,8294.058,39.1343
4146561,8294.060000000001,38.7393
4146562,8294.062,39.1343
4146563,8294.064,38.7393
4146564,8294.066,39.1343
4146565,8294.068000000001,39.1343
4146566,8294.07,39.1343
4146567,8294.072,39.1343
4146568,8294.074,39.1343
4146569,8294.076000000001,39.1343
4146570,8294.078,39.1343
4146571,8294.08,39.1343
4146572,8294.082,39.1343
4146573,8294.084,39.1343
4146574,8294.086000000001,39.1343
4146575,8294.088,39.1343
4146576,8294.09,39.1343
4146577,8294.092,39.1343
4146578,8294.094000000001,39.1343
4146579,8294.096,39.5293
4146580,8294.098,39.1343
4146581,8294.1,39.1343
4146582,8294.102,39.1343
4146583,8294.104000000001,39.5293
4146584,8294.106,39.5293
4146585,8294.108,39.5293
4146586,8294.11,39.5293
4146587,8294.112000000001,39.5293
4146588,8294.114,39.5293
4146589,8294.116,39.5293
4146590,8294.118,39.5293
4146591,8294.12,39.5293
4146592,8294.122000000001,39.5293
4146593,8294.124,39.5293
4146594,8294.126,39.1343
4146595,8294.128,39.5293
4146596,8294.130000000001,39.5293
4146597,8294.132,39.5293
4146598,8294.134,39.5293
4146599,8294.136,39.5293
4146600,8294.138,39.5293
4146601,8294.140000000001,39.5293
4146602,8294.142,39.5293
4146603,8294.144,39.5293
4146604,8294.146,39.5293
4146605,8294.148000000001,39.5293
4146606,8294.15,39.1343
4146607,8294.152,39.5293
4146608,8294.154,39.1343
4146609,8294.156,39.1343
4146610,8294.158000000001,39.1343
4146611,8294.16,39.1343
4146612,8294.162,39.1343
4146613,8294.164,39.1343
4146614,8294.166000000001,39.1343
4146615,8294.168,39.1343
4146616,8294.17,39.1343
4146617,8294.172,38.7393
4146618,8294.174,39.1343
4146619,8294.176000000001,38.7393
4146620,8294.178,38.7393
4146621,8294.18,38.7393
4146622,8294.182,39.1343
4146623,8294.184000000001,38.7393
4146624,8294.186,38.7393
4146625,8294.188,38.7393
4146626,8294.19,38.7393
4146627,8294.192000000001,38.3443
4146628,8294.194,38.3443
4146629,8294.196,38.3443
4146630,8294.198,38.3443
4146631,8294.2,38.3443
4146632,8294.202000000001,38.3443
4146633,8294.204,38.3443
4146634,8294.206,38.3443
4146635,8294.208,38.3443
4146636,8294.210000000001,38.3443
4146637,8294.212,38.3443
4146638,8294.214,37.9493
4146639,8294.216,37.9493
4146640,8294.218,37.9493
4146641,8294.220000000001,37.9493
4146642,8294.222,37.9493
4146643,8294.224,37.9493
4146644,8294.226,37.9493
4146645,8294.228000000001,37.9493
4146646,8294.23,37.9493
4146647,8294.232,37.5543
4146648,8294.234,37.5543
4146649,8294.236,37.9493
4146650,8294.238000000001,37.9493
4146651,8294.24,37.9493
4146652,8294.242,37.9493
4146653,8294.244,37.9493
4146654,8294.246000000001,37.9493
4146655,8294.248,37.9493
4146656,8294.25,37.9493
4146657,8294.252,37.9493
4146658,8294.254,37.9493
4146659,8294.256000000001,37.9493
4146660,8294.258,37.9493
4146661,8294.26,37.9493
4146662,8294.262,37.5543
4146663,8294.264000000001,37.9493
4146664,8294.266,37.5543
4146665,8294.268,37.9493
4146666,8294.27,37.9493
4146667,8294.272,37.9493
4146668,8294.274000000001,37.9493
4146669,8294.276,37.5543
4146670,8294.278,37.9493
4146671,8294.28,37.9493
4146672,8294.282000000001,37.5543
4146673,8294.284,37.9493
4146674,8294.286,37.9493
4146675,8294.288,37.9493
4146676,8294.29,37.9493
4146677,8294.292000000001,37.5543
4146678,8294.294,37.9493
4146679,8294.296,37.9493
4146680,8294.298,37.9493
4146681,8294.300000000001,37.5543
4146682,8294.302,37.9493
4146683,8294.304,37.9493
4146684,8294.306,37.5543
4146685,8294.308,37.5543
4146686,8294.310000000001,37.9493
4146687,8294.312,37.9493
4146688,8294.314,37.9493
4146689,8294.316,37.9493
4146690,8294.318000000001,37.5543
4146691,8294.32,37.9493
4146692,8294.322,37.9493
4146693,8294.324,37.9493
4146694,8294.326000000001,37.9493
4146695,8294.328,37.9493
4146696,8294.33,37.9493
4146697,8294.332,37.5543
4146698,8294.334,37.9493
4146699,8294.336000000001,37.9493
4146700,8294.338,37.9493
4146701,8294.34,37.9493
4146702,8294.342,37.9493
4146703,8294.344000000001,37.9493
4146704,8294.346,37.9493
4146705,8294.348,37.5543
4146706,8294.35,37.5543
4146707,8294.352,37.5543
4146708,8294.354000000001,37.9493
4146709,8294.356,37.9493
4146710,8294.358,37.5543
4146711,8294.36,37.9493
4146712,8294.362000000001,37.9493
4146713,8294.364,37.9493
4146714,8294.366,37.5543
4146715,8294.368,37.9493
4146716,8294.37,37.9493
4146717,8294.372000000001,37.9493
4146718,8294.374,37.9493
4146719,8294.376,37.9493
4146720,8294.378,37.9493
4146721,8294.380000000001,37.9493
4146722,8294.382,37.9493
4146723,8294.384,37.9493
4146724,8294.386,37.9493
4146725,8294.388,37.9493
4146726,8294.390000000001,37.9493
4146727,8294.392,37.9493
4146728,8294.394,37.9493
4146729,8294.396,37.9493
4146730,8294.398000000001,37.9493
4146731,8294.4,37.9493
4146732,8294.402,37.9493
4146733,8294.404,37.9493
4146734,8294.406,37.9493
4146735,8294.408000000001,37.9493
4146736,8294.41,37.9493
4146737,8294.412,37.9493
4146738,8294.414,37.9493
4146739,8294.416000000001,37.5543
4146740,8294.418,37.5543
4146741,8294.42,37.5543
4146742,8294.422,37.5543
4146743,8294.424,37.5543
4146744,8294.426000000001,37.5543
4146745,8294.428,37.5543
4146746,8294.43,37.5543
4146747,8294.432,37.5543
4146748,8294.434000000001,37.5543
4146749,8294.436,37.5543
4146750,8294.438,37.1594
4146751,8294.44,37.5543
4146752,8294.442000000001,37.5543
4146753,8294.444,37.5543
4146754,8294.446,37.5543
4146755,8294.448,37.5543
4146756,8294.45,37.1594
4146757,8294.452000000001,37.5543
4146758,8294.454,37.5543
4146759,8294.456,37.5543
4146760,8294.458,37.5543
4146761,8294.460000000001,37.5543
4146762,8294.462,37.5543
4146763,8294.464,37.5543
4146764,8294.466,37.5543
4146765,8294.468,37.5543
4146766,8294.470000000001,37.5543
4146767,8294.472,37.5543
4146768,8294.474,37.1594
4146769,8294.476,37.5543
4146770,8294.478000000001,37.5543
4146771,8294.48,37.5543
4146772,8294.482,37.1594
4146773,8294.484,37.5543
4146774,8294.486,37.5543
4146775,8294.488000000001,37.1594
4146776,8294.49,37.5543
4146777,8294.492,37.1594
4146778,8294.494,37.5543
4146779,8294.496000000001,37.5543
4146780,8294.498,37.5543
4146781,8294.5,37.5543
4146782,8294.502,37.5543
4146783,8294.504,37.5543
4146784,8294.506000000001,37.5543
4146785,8294.508,37.1594
4146786,8294.51,37.1594
4146787,8294.512,37.5543
4146788,8294.514000000001,37.5543
4146789,8294.516,37.5543
4146790,8294.518,37.5543
4146791,8294.52,37.5543
4146792,8294.522,37.5543
4146793,8294.524000000001,37.5543
4146794,8294.526,37.9493
4146795,8294.528,37.9493
4146796,8294.53,37.9493
4146797,8294.532000000001,37.9493
4146798,8294.534,37.9493
4146799,8294.536,38.3443
4146800,8294.538,38.3443
4146801,8294.54,38.3443
4146802,8294.542000000001,38.3443
4146803,8294.544,38.3443
4146804,8294.546,38.3443
4146805,8294.548,38.3443
4146806,8294.550000000001,38.7393
4146807,8294.552,38.7393
4146808,8294.554,38.7393
4146809,8294.556,38.7393
4146810,8294.558,38.7393
4146811,8294.560000000001,39.1343
4146812,8294.562,39.1343
4146813,8294.564,39.1343
4146814,8294.566,39.5293
4146815,8294.568000000001,39.5293
4146816,8294.57,39.5293
4146817,8294.572,39.9242
4146818,8294.574,39.9242
4146819,8294.576000000001,39.9242
4146820,8294.578,39.9242
4146821,8294.58,40.3192
4146822,8294.582,40.3192
4146823,8294.584,40.3192
4146824,8294.586000000001,40.3192
4146825,8294.588,40.3192
4146826,8294.59,40.7142
4146827,8294.592,40.7142
4146828,8294.594000000001,40.7142
4146829,8294.596,40.7142
4146830,8294.598,40.7142
4146831,8294.6,40.7142
4146832,8294.602,41.1092
4146833,8294.604000000001,41.1092
4146834,8294.606,41.1092
4146835,8294.608,41.5042
4146836,8294.61,41.5042
4146837,8294.612000000001,41.8992
4146838,8294.614,41.5042
4146839,8294.616,41.8992
4146840,8294.618,41.8992
4146841,8294.62,41.8992
4146842,8294.622000000001,42.2941
4146843,8294.624,42.2941
4146844,8294.626,42.2941
4146845,8294.628,42.6891
4146846,8294.630000000001,42.6891
4146847,8294.632,42.6891
4146848,8294.634,42.6891
4146849,8294.636,43.0841
4146850,8294.638,43.0841
4146851,8294.640000000001,43.0841
4146852,8294.642,43.0841
4146853,8294.644,43.4791
4146854,8294.646,43.4791
4146855,8294.648000000001,43.4791
4146856,8294.65,43.0841
4146857,8294.652,43.0841
4146858,8294.654,43.0841
4146859,8294.656,43.4791
4146860,8294.658000000001,43.0841
4146861,8294.66,43.4791
4146862,8294.662,43.4791
4146863,8294.664,43.4791
4146864,8294.666000000001,43.0841
4146865,8294.668,43.0841
4146866,8294.67,43.4791
4146867,8294.672,43.0841
4146868,8294.674,43.4791
4146869,8294.676000000001,43.0841
4146870,8294.678,43.0841
4146871,8294.68,43.0841
4146872,8294.682,43.0841
4146873,8294.684000000001,43.0841
4146874,8294.686,43.0841
4146875,8294.688,43.0841
4146876,8294.69,42.6891
4146877,8294.692000000001,42.6891
4146878,8294.694,42.6891
4146879,8294.696,42.6891
4146880,8294.698,42.2941
4146881,8294.7,42.2941
4146882,8294.702000000001,42.2941
4146883,8294.704,42.2941
4146884,8294.706,42.2941
4146885,8294.708,42.2941
4146886,8294.710000000001,41.8992
4146887,8294.712,41.8992
4146888,8294.714,41.8992
4146889,8294.716,41.5042
4146890,8294.718,41.8992
4146891,8294.720000000001,41.5042
4146892,8294.722,41.5042
4146893,8294.724,41.5042
4146894,8294.726,41.5042
4146895,8294.728000000001,41.1092
4146896,8294.73,41.1092
4146897,8294.732,41.1092
4146898,8294.734,40.7142
4146899,8294.736,41.1092
4146900,8294.738000000001,40.7142
4146901,8294.74,40.7142
4146902,8294.742,40.7142
4146903,8294.744,40.3192
4146904,8294.746000000001,40.3192
4146905,8294.748,40.3192
4146906,8294.75,40.3192
4146907,8294.752,40.3192
4146908,8294.754,40.3192
4146909,8294.756000000001,40.3192
4146910,8294.758,40.3192
4146911,8294.76,39.9242
4146912,8294.762,40.3192
4146913,8294.764000000001,39.9242
4146914,8294.766,39.9242
4146915,8294.768,39.9242
4146916,8294.77,39.9242
4146917,8294.772,39.9242
4146918,8294.774000000001,39.9242
4146919,8294.776,39.9242
4146920,8294.778,39.9242
4146921,8294.78,39.5293
4146922,8294.782000000001,39.9242
4146923,8294.784,39.9242
4146924,8294.786,39.9242
4146925,8294.788,39.9242
4146926,8294.79,39.9242
4146927,8294.792000000001,39.9242
4146928,8294.794,39.9242
4146929,8294.796,39.9242
4146930,8294.798,39.9242
4146931,8294.800000000001,39.9242
4146932,8294.802,39.9242
4146933,8294.804,39.9242
4146934,8294.806,39.9242
4146935,8294.808,39.9242
4146936,8294.810000000001,39.9242
4146937,8294.812,39.9242
4146938,8294.814,39.9242
4146939,8294.816,39.9242
4146940,8294.818000000001,39.5293
4146941,8294.82,39.9242
4146942,8294.822,39.5293
4146943,8294.824,39.5293
4146944,8294.826000000001,39.5293
4146945,8294.828,39.9242
4146946,8294.83,39.5293
4146947,8294.832,39.5293
4146948,8294.834,39.5293
4146949,8294.836000000001,39.5293
4146950,8294.838,39.5293
4146951,8294.84,39.5293
4146952,8294.842,39.5293
4146953,8294.844000000001,39.5293
4146954,8294.846,39.5293
4146955,8294.848,39.5293
4146956,8294.85,39.5293
4146957,8294.852,39.5293
4146958,8294.854000000001,39.5293
4146959,8294.856,39.5293
4146960,8294.858,39.5293
4146961,8294.86,39.5293
4146962,8294.862000000001,39.5293
4146963,8294.864,39.5293
4146964,8294.866,39.5293
4146965,8294.868,39.5293
4146966,8294.87,39.5293
4146967,8294.872000000001,39.5293
4146968,8294.874,39.5293
4146969,8294.876,39.1343
4146970,8294.878,39.5293
4146971,8294.880000000001,39.5293
4146972,8294.882,39.1343
4146973,8294.884,39.1343
4146974,8294.886,39.5293
4146975,8294.888,39.5293
4146976,8294.890000000001,39.5293
4146977,8294.892,39.5293
4146978,8294.894,39.5293
4146979,8294.896,39.9242
4146980,8294.898000000001,39.5293
4146981,8294.9,39.5293
4146982,8294.902,39.5293
4146983,8294.904,39.9242
4146984,8294.906,39.5293
4146985,8294.908000000001,39.5293
4146986,8294.91,39.5293
4146987,8294.912,39.5293
4146988,8294.914,39.5293
4146989,8294.916000000001,39.5293
4146990,8294.918,39.5293
4146991,8294.92,39.5293
4146992,8294.922,39.5293
4146993,8294.924,39.5293
4146994,8294.926000000001,39.5293
4146995,8294.928,39.5293
4146996,8294.93,39.5293
4146997,8294.932,39.5293
4146998,8294.934000000001,39.5293
4146999,8294.936,39.9242
4147000,8294.938,39.9242
4147001,8294.94,39.9242
4147002,8294.942000000001,39.9242
4147003,8294.944,39.9242
4147004,8294.946,39.9242
4147005,8294.948,39.9242
4147006,8294.95,39.9242
4147007,8294.952000000001,39.9242
4147008,8294.954,39.9242
4147009,8294.956,39.9242
4147010,8294.958,39.5293
4147011,8294.960000000001,39.9242
4147012,8294.962,39.9242
4147013,8294.964,39.9242
4147014,8294.966,39.9242
4147015,8294.968,39.5293
4147016,8294.970000000001,39.9242
4147017,8294.972,39.9242
4147018,8294.974,39.9242
4147019,8294.976,39.9242
4147020,8294.978000000001,39.9242
4147021,8294.98,39.9242
4147022,8294.982,39.9242
4147023,8294.984,39.9242
4147024,8294.986,39.9242
4147025,8294.988000000001,39.5293
4147026,8294.99,39.5293
4147027,8294.992,39.5293
4147028,8294.994,39.9242
4147029,8294.996000000001,39.9242
4147030,8294.998,39.9242
4147031,8295.0,39.9242
4147032,8295.002,39.9242
4147033,8295.004,39.9242
4147034,8295.006000000001,39.5293
4147035,8295.008,39.9242
4147036,8295.01,39.9242
4147037,8295.012,39.9242
4147038,8295.014000000001,39.9242
4147039,8295.016,39.9242
4147040,8295.018,39.9242
4147041,8295.02,39.9242
4147042,8295.022,39.9242
4147043,8295.024000000001,39.9242
4147044,8295.026,39.9242
4147045,8295.028,39.9242
4147046,8295.03,39.9242
4147047,8295.032000000001,39.5293
4147048,8295.034,39.5293
4147049,8295.036,39.9242
4147050,8295.038,39.9242
4147051,8295.04,39.9242
4147052,8295.042000000001,39.9242
4147053,8295.044,39.9242
4147054,8295.046,39.9242
4147055,8295.048,39.5293
4147056,8295.050000000001,39.9242
4147057,8295.052,39.5293
4147058,8295.054,39.5293
4147059,8295.056,39.5293
4147060,8295.058,39.5293
4147061,8295.060000000001,39.5293
4147062,8295.062,39.5293
4147063,8295.064,39.9242
4147064,8295.066,39.5293
4147065,8295.068000000001,39.5293
4147066,8295.07,39.5293
4147067,8295.072,39.1343
4147068,8295.074,39.1343
4147069,8295.076000000001,39.1343
4147070,8295.078,39.5293
4147071,8295.08,39.5293
4147072,8295.082,39.1343
4147073,8295.084,39.5293
4147074,8295.086000000001,39.5293
4147075,8295.088,39.1343
4147076,8295.09,39.5293
4147077,8295.092,39.5293
4147078,8295.094000000001,39.5293
4147079,8295.096,39.5293
4147080,8295.098,39.5293
4147081,8295.1,39.5293
4147082,8295.102,39.5293
4147083,8295.104000000001,39.5293
4147084,8295.106,39.5293
4147085,8295.108,39.1343
4147086,8295.11,39.5293
4147087,8295.112000000001,39.1343
4147088,8295.114,39.5293
4147089,8295.116,39.1343
4147090,8295.118,39.1343
4147091,8295.12,39.1343
4147092,8295.122000000001,39.1343
4147093,8295.124,39.1343
4147094,8295.126,39.1343
4147095,8295.128,39.5293
4147096,8295.130000000001,39.1343
4147097,8295.132,38.7393
4147098,8295.134,39.1343
4147099,8295.136,39.1343
4147100,8295.138,39.1343
4147101,8295.140000000001,39.1343
4147102,8295.142,39.1343
4147103,8295.144,39.1343
4147104,8295.146,38.7393
4147105,8295.148000000001,39.1343
4147106,8295.15,39.1343
4147107,8295.152,39.1343
4147108,8295.154,39.1343
4147109,8295.156,39.1343
4147110,8295.158000000001,39.1343
4147111,8295.16,39.1343
4147112,8295.162,39.1343
4147113,8295.164,39.1343
4147114,8295.166000000001,39.5293
4147115,8295.168,39.5293
4147116,8295.17,39.5293
4147117,8295.172,39.5293
4147118,8295.174,39.5293
4147119,8295.176000000001,39.5293
4147120,8295.178,39.5293
4147121,8295.18,39.5293
4147122,8295.182,39.5293
4147123,8295.184000000001,39.5293
4147124,8295.186,39.5293
4147125,8295.188,39.5293
4147126,8295.19,39.5293
4147127,8295.192000000001,39.5293
4147128,8295.194,39.5293
4147129,8295.196,39.5293
4147130,8295.198,39.5293
4147131,8295.2,39.5293
4147132,8295.202000000001,39.5293
4147133,8295.204,39.5293
4147134,8295.206,39.5293
4147135,8295.208,39.1343
4147136,8295.210000000001,39.5293
4147137,8295.212,39.5293
4147138,8295.214,39.5293
4147139,8295.216,39.5293
4147140,8295.218,39.5293
4147141,8295.220000000001,39.1343
4147142,8295.222,39.5293
4147143,8295.224,39.5293
4147144,8295.226,39.5293
4147145,8295.228000000001,39.5293
4147146,8295.23,39.5293
4147147,8295.232,39.5293
4147148,8295.234,39.5293
4147149,8295.236,39.1343
4147150,8295.238000000001,39.5293
4147151,8295.24,39.5293
4147152,8295.242,39.5293
4147153,8295.244,39.5293
4147154,8295.246000000001,39.5293
4147155,8295.248,39.5293
4147156,8295.25,39.5293
4147157,8295.252,39.5293
4147158,8295.254,39.5293
4147159,8295.256000000001,39.5293
4147160,8295.258,39.1343
4147161,8295.26,39.5293
4147162,8295.262,39.5293
4147163,8295.264000000001,39.5293
4147164,8295.266,39.5293
4147165,8295.268,39.5293
4147166,8295.27,39.5293
4147167,8295.272,39.5293
4147168,8295.274000000001,39.5293
4147169,8295.276,39.5293
4147170,8295.278,39.5293
4147171,8295.28,39.1343
4147172,8295.282000000001,39.5293
4147173,8295.284,39.1343
4147174,8295.286,39.5293
4147175,8295.288,39.5293
4147176,8295.29,39.1343
4147177,8295.292000000001,39.1343
4147178,8295.294,39.1343
4147179,8295.296,39.5293
4147180,8295.298,39.1343
4147181,8295.300000000001,39.1343
4147182,8295.302,39.1343
4147183,8295.304,39.1343
4147184,8295.306,39.1343
4147185,8295.308,39.1343
4147186,8295.310000000001,39.1343
4147187,8295.312,39.1343
4147188,8295.314,39.1343
4147189,8295.316,38.7393
4147190,8295.318000000001,39.1343
4147191,8295.32,39.1343
4147192,8295.322,39.1343
4147193,8295.324,39.1343
4147194,8295.326000000001,39.1343
4147195,8295.328,39.1343
4147196,8295.33,39.1343
4147197,8295.332,39.1343
4147198,8295.334,38.7393
4147199,8295.336000000001,39.1343
4147200,8295.338,39.1343
4147201,8295.34,39.1343
4147202,8295.342,39.1343
4147203,8295.344000000001,38.7393
4147204,8295.346,39.1343
4147205,8295.348,39.1343
4147206,8295.35,39.1343
4147207,8295.352,39.1343
4147208,8295.354000000001,39.1343
4147209,8295.356,39.1343
4147210,8295.358,39.1343
4147211,8295.36,39.5293
4147212,8295.362000000001,39.5293
4147213,8295.364,39.5293
4147214,8295.366,39.5293
4147215,8295.368,39.5293
4147216,8295.37,39.5293
4147217,8295.372000000001,39.5293
4147218,8295.374,39.9242
4147219,8295.376,39.9242
4147220,8295.378,39.9242
4147221,8295.380000000001,39.9242
4147222,8295.382,39.9242
4147223,8295.384,39.9242
4147224,8295.386,39.9242
4147225,8295.388,39.9242
4147226,8295.390000000001,40.3192
4147227,8295.392,39.9242
4147228,8295.394,40.3192
4147229,8295.396,40.3192
4147230,8295.398000000001,40.3192
4147231,8295.4,40.3192
4147232,8295.402,40.3192
4147233,8295.404,40.3192
4147234,8295.406,40.7142
4147235,8295.408000000001,40.3192
4147236,8295.41,40.7142
4147237,8295.412,41.1092
4147238,8295.414,41.1092
4147239,8295.416000000001,41.1092
4147240,8295.418,41.1092
4147241,8295.42,41.5042
4147242,8295.422,41.5042
4147243,8295.424,41.8992
4147244,8295.426000000001,41.8992
4147245,8295.428,41.8992
4147246,8295.43,42.2941
4147247,8295.432,42.2941
4147248,8295.434000000001,42.2941
4147249,8295.436,42.6891
4147250,8295.438,42.6891
4147251,8295.44,42.6891
4147252,8295.442000000001,42.6891
4147253,8295.444,43.0841
4147254,8295.446,43.0841
4147255,8295.448,43.0841
4147256,8295.45,43.4791
4147257,8295.452000000001,43.4791
4147258,8295.454,43.4791
4147259,8295.456,43.4791
4147260,8295.458,43.4791
4147261,8295.460000000001,43.8741
4147262,8295.462,43.8741
4147263,8295.464,43.8741
4147264,8295.466,43.8741
4147265,8295.468,44.269
4147266,8295.470000000001,44.269
4147267,8295.472,44.269
4147268,8295.474,44.269
4147269,8295.476,44.269
4147270,8295.478000000001,44.269
4147271,8295.48,44.664
4147272,8295.482,44.664
4147273,8295.484,44.664
4147274,8295.486,44.664
4147275,8295.488000000001,44.664
4147276,8295.49,44.269
4147277,8295.492,44.269
4147278,8295.494,44.664
4147279,8295.496000000001,44.269
4147280,8295.498,44.664
4147281,8295.5,44.664
4147282,8295.502,44.664
4147283,8295.504,44.664
4147284,8295.506000000001,44.664
4147285,8295.508,44.269
4147286,8295.51,44.269
4147287,8295.512,44.269
4147288,8295.514000000001,44.269
4147289,8295.516,43.8741
4147290,8295.518,43.8741
4147291,8295.52,43.8741
4147292,8295.522,43.8741
4147293,8295.524000000001,43.4791
4147294,8295.526,43.4791
4147295,8295.528,43.4791
4147296,8295.53,43.0841
4147297,8295.532000000001,43.0841
4147298,8295.534,43.0841
4147299,8295.536,43.0841
4147300,8295.538,42.6891
4147301,8295.54,42.6891
4147302,8295.542000000001,42.6891
4147303,8295.544,42.6891
4147304,8295.546,42.6891
4147305,8295.548,42.6891
4147306,8295.550000000001,42.2941
4147307,8295.552,42.2941
4147308,8295.554,42.2941
4147309,8295.556,42.2941
4147310,8295.558,42.2941
4147311,8295.560000000001,41.8992
4147312,8295.562,41.8992
4147313,8295.564,41.8992
4147314,8295.566,41.8992
4147315,8295.568000000001,41.5042
4147316,8295.57,41.5042
4147317,8295.572,41.5042
4147318,8295.574,41.5042
4147319,8295.576000000001,41.5042
4147320,8295.578,41.1092
4147321,8295.58,41.1092
4147322,8295.582,41.1092
4147323,8295.584,41.1092
4147324,8295.586000000001,41.1092
4147325,8295.588,41.1092
4147326,8295.59,41.1092
4147327,8295.592,41.1092
4147328,8295.594000000001,40.7142
4147329,8295.596,40.7142
4147330,8295.598,40.7142
4147331,8295.6,40.7142
4147332,8295.602,40.7142
4147333,8295.604000000001,40.7142
4147334,8295.606,40.7142
4147335,8295.608,40.7142
4147336,8295.61,40.3192
4147337,8295.612000000001,40.3192
4147338,8295.614,40.3192
4147339,8295.616,40.3192
4147340,8295.618,40.3192
4147341,8295.62,40.3192
4147342,8295.622000000001,40.3192
4147343,8295.624,40.3192
4147344,8295.626,39.9242
4147345,8295.628,39.9242
4147346,8295.630000000001,39.9242
4147347,8295.632,39.9242
4147348,8295.634,39.9242
4147349,8295.636,39.9242
4147350,8295.638,39.9242
4147351,8295.640000000001,39.9242
4147352,8295.642,39.9242
4147353,8295.644,39.9242
4147354,8295.646,39.9242
4147355,8295.648000000001,39.9242
4147356,8295.65,39.9242
4147357,8295.652,39.9242
4147358,8295.654,39.9242
4147359,8295.656,39.9242
4147360,8295.658000000001,39.9242
4147361,8295.66,39.9242
4147362,8295.662,39.9242
4147363,8295.664,39.9242
4147364,8295.666000000001,39.9242
4147365,8295.668,39.9242
4147366,8295.67,39.9242
4147367,8295.672,39.9242
4147368,8295.674,39.9242
4147369,8295.676000000001,39.9242
4147370,8295.678,39.9242
4147371,8295.68,39.9242
4147372,8295.682,39.5293
4147373,8295.684000000001,39.9242
4147374,8295.686,39.5293
4147375,8295.688,39.9242
4147376,8295.69,39.9242
4147377,8295.692000000001,39.9242
4147378,8295.694,39.9242
4147379,8295.696,39.9242
4147380,8295.698,39.9242
4147381,8295.7,39.9242
4147382,8295.702000000001,39.9242
4147383,8295.704,39.9242
4147384,8295.706,39.9242
4147385,8295.708,39.9242
4147386,8295.710000000001,39.9242
4147387,8295.712,39.9242
4147388,8295.714,39.9242
4147389,8295.716,39.9242
4147390,8295.718,39.9242
4147391,8295.720000000001,39.9242
4147392,8295.722,39.9242
4147393,8295.724,39.9242
4147394,8295.726,39.9242
4147395,8295.728000000001,39.9242
4147396,8295.73,39.9242
4147397,8295.732,39.9242
4147398,8295.734,39.9242
4147399,8295.736,39.9242
4147400,8295.738000000001,39.9242
4147401,8295.74,39.9242
4147402,8295.742,39.5293
4147403,8295.744,39.9242
4147404,8295.746000000001,39.5293
4147405,8295.748,39.9242
4147406,8295.75,39.9242
4147407,8295.752,39.9242
4147408,8295.754,39.9242
4147409,8295.756000000001,39.5293
4147410,8295.758,39.9242
4147411,8295.76,39.9242
4147412,8295.762,39.5293
4147413,8295.764000000001,39.9242
4147414,8295.766,39.9242
4147415,8295.768,39.9242
4147416,8295.77,39.9242
4147417,8295.772,39.9242
4147418,8295.774000000001,39.9242
4147419,8295.776,39.9242
4147420,8295.778,39.9242
4147421,8295.78,39.9242
4147422,8295.782000000001,39.9242
4147423,8295.784,39.5293
4147424,8295.786,39.9242
4147425,8295.788,39.9242
4147426,8295.79,39.9242
4147427,8295.792000000001,39.9242
4147428,8295.794,39.9242
4147429,8295.796,39.9242
4147430,8295.798,39.9242
4147431,8295.800000000001,39.9242
4147432,8295.802,39.9242
4147433,8295.804,39.9242
4147434,8295.806,39.9242
4147435,8295.808,39.9242
4147436,8295.810000000001,39.5293
4147437,8295.812,39.5293
4147438,8295.814,39.5293
4147439,8295.816,39.5293
4147440,8295.818000000001,39.5293
4147441,8295.82,39.5293
4147442,8295.822,39.9242
4147443,8295.824,39.5293
4147444,8295.826000000001,39.5293
4147445,8295.828,39.5293
4147446,8295.83,39.5293
4147447,8295.832,39.5293
4147448,8295.834,39.5293
4147449,8295.836000000001,39.5293
4147450,8295.838,39.1343
4147451,8295.84,39.5293
4147452,8295.842,39.5293
4147453,8295.844000000001,39.5293
4147454,8295.846,39.5293
4147455,8295.848,39.5293
4147456,8295.85,39.1343
4147457,8295.852,39.5293
4147458,8295.854000000001,39.5293
4147459,8295.856,39.5293
4147460,8295.858,39.5293
4147461,8295.86,39.5293
4147462,8295.862000000001,39.5293
4147463,8295.864,39.5293
4147464,8295.866,39.5293
4147465,8295.868,39.5293
4147466,8295.87,39.5293
4147467,8295.872000000001,39.5293
4147468,8295.874,39.5293
4147469,8295.876,39.5293
4147470,8295.878,39.5293
4147471,8295.880000000001,39.5293
4147472,8295.882,39.5293
4147473,8295.884,39.1343
4147474,8295.886,39.1343
4147475,8295.888,39.1343
4147476,8295.890000000001,39.1343
4147477,8295.892,39.1343
4147478,8295.894,39.1343
4147479,8295.896,39.1343
4147480,8295.898000000001,39.1343
4147481,8295.9,39.1343
4147482,8295.902,39.1343
4147483,8295.904,39.1343
4147484,8295.906,39.1343
4147485,8295.908000000001,39.1343
4147486,8295.91,39.1343
4147487,8295.912,39.1343
4147488,8295.914,39.1343
4147489,8295.916000000001,39.1343
4147490,8295.918,39.1343
4147491,8295.92,39.1343
4147492,8295.922,38.7393
4147493,8295.924,39.1343
4147494,8295.926000000001,38.7393
4147495,8295.928,39.1343
4147496,8295.93,39.1343
4147497,8295.932,38.7393
4147498,8295.934000000001,39.1343
4147499,8295.936,39.1343
4147500,8295.938,38.7393
4147501,8295.94,39.1343
4147502,8295.942000000001,39.1343
4147503,8295.944,39.1343
4147504,8295.946,39.1343
4147505,8295.948,39.1343
4147506,8295.95,39.1343
4147507,8295.952000000001,39.1343
4147508,8295.954,39.1343
4147509,8295.956,39.1343
4147510,8295.958,39.1343
4147511,8295.960000000001,39.1343
4147512,8295.962,39.1343
4147513,8295.964,39.1343
4147514,8295.966,38.7393
4147515,8295.968,39.1343
4147516,8295.970000000001,39.1343
4147517,8295.972,38.7393
4147518,8295.974,39.1343
4147519,8295.976,39.1343
4147520,8295.978000000001,39.1343
4147521,8295.98,39.1343
4147522,8295.982,39.1343
4147523,8295.984,39.1343
4147524,8295.986,39.1343
4147525,8295.988000000001,38.7393
4147526,8295.99,39.1343
4147527,8295.992,39.1343
4147528,8295.994,38.7393
4147529,8295.996000000001,39.1343
4147530,8295.998,39.1343
4147531,8296.0,39.1343
4147532,8296.002,39.1343
4147533,8296.004,39.1343
4147534,8296.006000000001,39.1343
4147535,8296.008,39.1343
4147536,8296.01,39.1343
4147537,8296.012,39.1343
4147538,8296.014000000001,39.1343
4147539,8296.016,38.7393
4147540,8296.018,38.7393
4147541,8296.02,39.1343
4147542,8296.022,39.1343
4147543,8296.024000000001,39.1343
4147544,8296.026,39.1343
4147545,8296.028,39.1343
4147546,8296.03,39.1343
4147547,8296.032000000001,39.1343
4147548,8296.034,39.1343
4147549,8296.036,39.1343
4147550,8296.038,39.1343
4147551,8296.04,39.1343
4147552,8296.042000000001,39.1343
4147553,8296.044,39.1343
4147554,8296.046,39.1343
4147555,8296.048,39.1343
4147556,8296.050000000001,39.1343
4147557,8296.052,39.1343
4147558,8296.054,38.7393
4147559,8296.056,39.1343
4147560,8296.058,39.1343
4147561,8296.060000000001,39.1343
4147562,8296.062,39.1343
4147563,8296.064,39.1343
4147564,8296.066,39.1343
4147565,8296.068000000001,39.1343
4147566,8296.07,39.1343
4147567,8296.072,39.1343
4147568,8296.074,39.1343
4147569,8296.076000000001,39.1343
4147570,8296.078,39.1343
4147571,8296.08,39.1343
4147572,8296.082,39.1343
4147573,8296.084,39.1343
4147574,8296.086000000001,39.1343
4147575,8296.088,39.1343
4147576,8296.09,39.1343
4147577,8296.092,39.1343
4147578,8296.094000000001,39.1343
4147579,8296.096,39.1343
4147580,8296.098,39.1343
4147581,8296.1,39.5293
4147582,8296.102,39.5293
4147583,8296.104000000001,39.5293
4147584,8296.106,39.5293
4147585,8296.108,39.5293
4147586,8296.11,39.5293
4147587,8296.112000000001,39.5293
4147588,8296.114,39.5293
4147589,8296.116,39.1343
4147590,8296.118,39.1343
4147591,8296.12,39.1343
4147592,8296.122000000001,39.1343
4147593,8296.124,39.1343
4147594,8296.126,39.1343
4147595,8296.128,39.1343
4147596,8296.130000000001,39.1343
4147597,8296.132,39.1343
4147598,8296.134,39.1343
4147599,8296.136,39.1343
4147600,8296.138,39.1343
4147601,8296.140000000001,39.1343
4147602,8296.142,39.1343
4147603,8296.144,39.1343
4147604,8296.146,39.1343
4147605,8296.148000000001,39.1343
4147606,8296.15,39.1343
4147607,8296.152,39.1343
4147608,8296.154,39.1343
4147609,8296.156,39.1343
4147610,8296.158000000001,39.1343
4147611,8296.16,39.1343
4147612,8296.162,39.1343
4147613,8296.164,39.1343
4147614,8296.166000000001,38.7393
4147615,8296.168,39.1343
4147616,8296.17,39.1343
4147617,8296.172,39.1343
4147618,8296.174,39.1343
4147619,8296.176000000001,39.1343
4147620,8296.178,39.1343
4147621,8296.18,39.1343
4147622,8296.182,39.1343
4147623,8296.184000000001,39.1343
4147624,8296.186,39.5293
4147625,8296.188,39.5293
4147626,8296.19,39.5293
4147627,8296.192000000001,39.5293
4147628,8296.194,39.5293
4147629,8296.196,39.5293
4147630,8296.198,39.5293
4147631,8296.2,39.5293
4147632,8296.202000000001,39.5293
4147633,8296.204,39.9242
4147634,8296.206,39.9242
4147635,8296.208,39.9242
4147636,8296.210000000001,39.9242
4147637,8296.212,39.9242
4147638,8296.214,39.9242
4147639,8296.216,39.9242
4147640,8296.218,39.9242
4147641,8296.220000000001,40.3192
4147642,8296.222,40.3192
4147643,8296.224,39.9242
4147644,8296.226,40.3192
4147645,8296.228000000001,40.3192
4147646,8296.23,40.3192
4147647,8296.232,40.3192
4147648,8296.234,40.3192
4147649,8296.236,40.7142
4147650,8296.238000000001,40.7142
4147651,8296.24,40.7142
4147652,8296.242,40.3192
4147653,8296.244,40.7142
4147654,8296.246000000001,40.7142
4147655,8296.248,41.1092
4147656,8296.25,41.1092
4147657,8296.252,41.1092
4147658,8296.254,41.5042
4147659,8296.256000000001,41.8992
4147660,8296.258,41.8992
4147661,8296.26,42.2941
4147662,8296.262,42.2941
4147663,8296.264000000001,42.2941
4147664,8296.266,42.2941
4147665,8296.268,42.6891
4147666,8296.27,42.6891
4147667,8296.272,42.6891
4147668,8296.274000000001,43.0841
4147669,8296.276,43.0841
4147670,8296.278,42.6891
4147671,8296.28,43.0841
4147672,8296.282000000001,43.0841
4147673,8296.284,43.0841
4147674,8296.286,43.4791
4147675,8296.288,43.4791
4147676,8296.29,43.4791
4147677,8296.292000000001,43.4791
4147678,8296.294,43.8741
4147679,8296.296,43.8741
4147680,8296.298,43.8741
4147681,8296.300000000001,43.8741
4147682,8296.302,44.269
4147683,8296.304,44.269
4147684,8296.306,44.269
4147685,8296.308,44.664
4147686,8296.310000000001,44.664
4147687,8296.312,44.664
4147688,8296.314,44.664
4147689,8296.316,44.664
4147690,8296.318000000001,44.664
4147691,8296.32,44.664
4147692,8296.322,44.664
4147693,8296.324,44.664
4147694,8296.326000000001,44.269
4147695,8296.328,44.664
4147696,8296.33,44.664
4147697,8296.332,44.664
4147698,8296.334,44.664
4147699,8296.336000000001,44.664
4147700,8296.338,44.664
4147701,8296.34,44.664
4147702,8296.342,44.664
4147703,8296.344000000001,44.269
4147704,8296.346,44.269
4147705,8296.348,44.269
4147706,8296.35,43.8741
4147707,8296.352,43.8741
4147708,8296.354000000001,43.8741
4147709,8296.356,43.8741
4147710,8296.358,43.8741
4147711,8296.36,43.4791
4147712,8296.362000000001,43.4791
4147713,8296.364,43.4791
4147714,8296.366,43.0841
4147715,8296.368,43.0841
4147716,8296.37,43.0841
4147717,8296.372000000001,43.0841
4147718,8296.374,42.6891
4147719,8296.376,42.6891
4147720,8296.378,42.6891
4147721,8296.380000000001,43.0841
4147722,8296.382,42.6891
4147723,8296.384,42.6891
4147724,8296.386,42.6891
4147725,8296.388,42.2941
4147726,8296.390000000001,42.2941
4147727,8296.392,42.2941
4147728,8296.394,42.2941
4147729,8296.396,41.8992
4147730,8296.398000000001,42.2941
4147731,8296.4,41.8992
4147732,8296.402,41.8992
4147733,8296.404,41.5042
4147734,8296.406,41.8992
4147735,8296.408000000001,42.2941
4147736,8296.41,41.5042
4147737,8296.412,41.5042
4147738,8296.414,41.5042
4147739,8296.416000000001,41.5042
4147740,8296.418,41.5042
4147741,8296.42,41.1092
4147742,8296.422,41.1092
4147743,8296.424,41.5042
4147744,8296.426000000001,41.5042
4147745,8296.428,41.5042
4147746,8296.43,41.1092
4147747,8296.432,41.1092
4147748,8296.434000000001,41.1092
4147749,8296.436,41.1092
4147750,8296.438,41.1092
4147751,8296.44,40.7142
4147752,8296.442000000001,41.1092
4147753,8296.444,40.7142
4147754,8296.446,41.1092
4147755,8296.448,40.7142
4147756,8296.45,41.1092
4147757,8296.452000000001,40.7142
4147758,8296.454,40.7142
4147759,8296.456,40.7142
4147760,8296.458,40.7142
4147761,8296.460000000001,40.7142
4147762,8296.462,40.7142
4147763,8296.464,40.7142
4147764,8296.466,40.7142
4147765,8296.468,40.3192
4147766,8296.470000000001,40.7142
4147767,8296.472,40.7142
4147768,8296.474,40.3192
4147769,8296.476,40.3192
4147770,8296.478000000001,40.3192
4147771,8296.48,39.9242
4147772,8296.482,39.9242
4147773,8296.484,39.9242
4147774,8296.486,39.9242
4147775,8296.488000000001,39.9242
4147776,8296.49,39.9242
4147777,8296.492,39.9242
4147778,8296.494,39.9242
4147779,8296.496000000001,39.9242
4147780,8296.498,39.5293
4147781,8296.5,39.9242
4147782,8296.502,39.9242
4147783,8296.504,39.9242
4147784,8296.506000000001,39.9242
4147785,8296.508,39.9242
4147786,8296.51,39.9242
4147787,8296.512,39.9242
4147788,8296.514000000001,39.9242
4147789,8296.516,39.5293
4147790,8296.518,39.9242
4147791,8296.52,39.9242
4147792,8296.522,39.9242
4147793,8296.524000000001,39.9242
4147794,8296.526,39.9242
4147795,8296.528,39.9242
4147796,8296.53,39.9242
4147797,8296.532000000001,39.9242
4147798,8296.534,39.5293
4147799,8296.536,39.9242
4147800,8296.538,39.9242
4147801,8296.54,39.9242
4147802,8296.542000000001,39.9242
4147803,8296.544,39.9242
4147804,8296.546,39.9242
4147805,8296.548,39.9242
4147806,8296.550000000001,39.5293
4147807,8296.552,39.9242
4147808,8296.554,39.9242
4147809,8296.556,39.9242
4147810,8296.558,39.9242
4147811,8296.560000000001,39.9242
4147812,8296.562,39.5293
4147813,8296.564,39.9242
4147814,8296.566,39.9242
4147815,8296.568000000001,39.9242
4147816,8296.57,39.9242
4147817,8296.572,39.9242
4147818,8296.574,39.9242
4147819,8296.576000000001,39.5293
4147820,8296.578,39.9242
4147821,8296.58,39.9242
4147822,8296.582,39.9242
4147823,8296.584,39.5293
4147824,8296.586000000001,39.9242
4147825,8296.588,39.9242
4147826,8296.59,39.9242
4147827,8296.592,39.5293
4147828,8296.594000000001,39.9242
4147829,8296.596,39.9242
4147830,8296.598,39.9242
4147831,8296.6,39.9242
4147832,8296.602,39.9242
4147833,8296.604000000001,39.9242
4147834,8296.606,39.5293
4147835,8296.608,39.9242
4147836,8296.61,39.5293
4147837,8296.612000000001,39.9242
4147838,8296.614,39.5293
4147839,8296.616,39.9242
4147840,8296.618,39.9242
4147841,8296.62,39.9242
4147842,8296.622000000001,39.9242
4147843,8296.624,39.9242
4147844,8296.626,39.9242
4147845,8296.628,39.9242
4147846,8296.630000000001,39.5293
4147847,8296.632,39.9242
4147848,8296.634,39.9242
4147849,8296.636,39.9242
4147850,8296.638,39.9242
4147851,8296.640000000001,39.9242
4147852,8296.642,39.9242
4147853,8296.644,39.9242
4147854,8296.646,39.9242
4147855,8296.648000000001,39.9242
4147856,8296.65,39.5293
4147857,8296.652,39.9242
4147858,8296.654,39.9242
4147859,8296.656,39.9242
4147860,8296.658000000001,39.5293
4147861,8296.66,39.5293
4147862,8296.662,39.9242
4147863,8296.664,39.9242
4147864,8296.666000000001,39.9242
4147865,8296.668,39.9242
4147866,8296.67,39.9242
4147867,8296.672,39.9242
4147868,8296.674,39.9242
4147869,8296.676000000001,39.9242
4147870,8296.678,39.9242
4147871,8296.68,39.5293
4147872,8296.682,39.5293
4147873,8296.684000000001,39.5293
4147874,8296.686,39.5293
4147875,8296.688,39.5293
4147876,8296.69,39.5293
4147877,8296.692000000001,39.5293
4147878,8296.694,39.5293
4147879,8296.696,39.5293
4147880,8296.698,39.5293
4147881,8296.7,39.5293
4147882,8296.702000000001,39.5293
4147883,8296.704,39.1343
4147884,8296.706,39.1343
4147885,8296.708,39.5293
4147886,8296.710000000001,39.5293
4147887,8296.712,39.1343
4147888,8296.714,39.1343
4147889,8296.716,39.5293
4147890,8296.718,39.5293
4147891,8296.720000000001,39.5293
4147892,8296.722,39.5293
4147893,8296.724,39.5293
4147894,8296.726,39.5293
4147895,8296.728000000001,39.1343
4147896,8296.73,39.1343
4147897,8296.732,39.5293
4147898,8296.734,39.1343
4147899,8296.736,39.5293
4147900,8296.738000000001,39.1343
4147901,8296.74,39.5293
4147902,8296.742,39.5293
4147903,8296.744,39.5293
4147904,8296.746000000001,39.1343
4147905,8296.748,39.5293
4147906,8296.75,39.5293
4147907,8296.752,39.5293
4147908,8296.754,39.1343
4147909,8296.756000000001,39.5293
4147910,8296.758,39.5293
4147911,8296.76,39.5293
4147912,8296.762,39.5293
4147913,8296.764000000001,39.5293
4147914,8296.766,39.5293
4147915,8296.768,39.5293
4147916,8296.77,39.5293
4147917,8296.772,39.5293
4147918,8296.774000000001,39.5293
4147919,8296.776,39.5293
4147920,8296.778,39.5293
4147921,8296.78,39.5293
4147922,8296.782000000001,39.5293
4147923,8296.784,39.5293
4147924,8296.786,39.1343
4147925,8296.788,39.5293
4147926,8296.79,39.1343
4147927,8296.792000000001,39.5293
4147928,8296.794,39.5293
4147929,8296.796,39.5293
4147930,8296.798,39.5293
4147931,8296.800000000001,39.1343
4147932,8296.802,39.5293
4147933,8296.804,39.5293
4147934,8296.806,39.5293
4147935,8296.808,39.5293
4147936,8296.810000000001,39.5293
4147937,8296.812,39.5293
4147938,8296.814,39.5293
4147939,8296.816,39.1343
4147940,8296.818000000001,39.1343
4147941,8296.82,39.1343
4147942,8296.822,39.1343
4147943,8296.824,39.1343
4147944,8296.826000000001,39.1343
4147945,8296.828,39.1343
4147946,8296.83,39.1343
4147947,8296.832,39.1343
4147948,8296.834,39.1343
4147949,8296.836000000001,39.1343
4147950,8296.838,39.1343
4147951,8296.84,39.1343
4147952,8296.842,39.1343
4147953,8296.844000000001,39.1343
4147954,8296.846,38.7393
4147955,8296.848,38.7393
4147956,8296.85,39.1343
4147957,8296.852,39.1343
4147958,8296.854000000001,39.1343
4147959,8296.856,39.1343
4147960,8296.858,39.1343
4147961,8296.86,39.1343
4147962,8296.862000000001,38.7393
4147963,8296.864,39.1343
4147964,8296.866,38.7393
4147965,8296.868,39.1343
4147966,8296.87,39.1343
4147967,8296.872000000001,39.1343
4147968,8296.874,39.1343
4147969,8296.876,39.1343
4147970,8296.878,39.1343
4147971,8296.880000000001,39.1343
4147972,8296.882,39.1343
4147973,8296.884,39.1343
4147974,8296.886,39.1343
4147975,8296.888,39.1343
4147976,8296.890000000001,39.1343
4147977,8296.892,39.1343
4147978,8296.894,38.7393
4147979,8296.896,39.1343
4147980,8296.898000000001,39.1343
4147981,8296.9,39.1343
4147982,8296.902,39.1343
4147983,8296.904,39.1343
4147984,8296.906,39.5293
4147985,8296.908000000001,39.5293
4147986,8296.91,39.1343
4147987,8296.912,39.5293
4147988,8296.914,39.5293
4147989,8296.916000000001,39.5293
4147990,8296.918,39.5293
4147991,8296.92,39.5293
4147992,8296.922,39.9242
4147993,8296.924,39.5293
4147994,8296.926000000001,39.5293
4147995,8296.928,39.5293
4147996,8296.93,39.5293
4147997,8296.932,39.9242
4147998,8296.934000000001,39.5293
4147999,8296.936,39.9242
4148000,8296.938,39.9242
4148001,8296.94,39.9242
4148002,8296.942000000001,39.9242
4148003,8296.944,39.5293
4148004,8296.946,39.9242
4148005,8296.948,39.9242
4148006,8296.95,39.9242
4148007,8296.952000000001,39.9242
4148008,8296.954,39.9242
4148009,8296.956,39.9242
4148010,8296.958,39.5293
4148011,8296.960000000001,39.9242
4148012,8296.962,39.9242
4148013,8296.964,39.9242
4148014,8296.966,39.5293
4148015,8296.968,39.5293
4148016,8296.970000000001,39.9242
4148017,8296.972,39.9242
4148018,8296.974,39.5293
4148019,8296.976,39.9242
4148020,8296.978000000001,39.9242
4148021,8296.98,39.9242
4148022,8296.982,39.9242
4148023,8296.984,39.9242
4148024,8296.986,39.9242
4148025,8296.988000000001,39.9242
4148026,8296.99,39.9242
4148027,8296.992,39.9242
4148028,8296.994,39.9242
4148029,8296.996000000001,39.9242
4148030,8296.998,39.9242
4148031,8297.0,39.9242
4148032,8297.002,39.5293
4148033,8297.004,39.9242
4148034,8297.006000000001,39.9242
4148035,8297.008,39.9242
4148036,8297.01,39.9242
4148037,8297.012,39.9242
4148038,8297.014000000001,39.9242
4148039,8297.016,39.5293
4148040,8297.018,39.9242
4148041,8297.02,39.9242
4148042,8297.022,39.9242
4148043,8297.024000000001,39.9242
4148044,8297.026,39.9242
4148045,8297.028,39.9242
4148046,8297.03,39.5293
4148047,8297.032000000001,39.9242
4148048,8297.034,39.9242
4148049,8297.036,39.9242
4148050,8297.038,39.5293
4148051,8297.04,39.9242
4148052,8297.042000000001,39.9242
4148053,8297.044,39.9242
4148054,8297.046,39.9242
4148055,8297.048,39.9242
4148056,8297.050000000001,40.3192
4148057,8297.052,40.3192
4148058,8297.054,39.9242
4148059,8297.056,40.3192
4148060,8297.058,40.3192
4148061,8297.060000000001,40.7142
4148062,8297.062,40.7142
4148063,8297.064,40.7142
4148064,8297.066,40.7142
4148065,8297.068000000001,40.3192
4148066,8297.07,41.1092
4148067,8297.072,41.1092
4148068,8297.074,41.1092
4148069,8297.076000000001,41.1092
4148070,8297.078,41.5042
4148071,8297.08,41.5042
4148072,8297.082,41.8992
4148073,8297.084,41.8992
4148074,8297.086000000001,41.5042
4148075,8297.088,41.8992
4148076,8297.09,42.2941
4148077,8297.092,42.2941
4148078,8297.094000000001,42.6891
4148079,8297.096,42.2941
4148080,8297.098,43.0841
4148081,8297.1,42.6891
4148082,8297.102,43.0841
4148083,8297.104000000001,43.0841
4148084,8297.106,43.0841
4148085,8297.108,43.0841
4148086,8297.11,43.4791
4148087,8297.112000000001,43.4791
4148088,8297.114,43.8741
4148089,8297.116,43.8741
4148090,8297.118,43.8741
4148091,8297.12,43.8741
4148092,8297.122000000001,44.269
4148093,8297.124,43.8741
4148094,8297.126,44.269
4148095,8297.128,44.269
4148096,8297.130000000001,44.269
4148097,8297.132,44.269
4148098,8297.134,44.664
4148099,8297.136,44.664
4148100,8297.138,44.269
4148101,8297.140000000001,44.664
4148102,8297.142,45.059
4148103,8297.144,45.059
4148104,8297.146,45.059
4148105,8297.148000000001,44.664
4148106,8297.15,44.664
4148107,8297.152,45.059
4148108,8297.154,45.059
4148109,8297.156,44.664
4148110,8297.158000000001,45.059
4148111,8297.16,45.059
4148112,8297.162,45.059
4148113,8297.164,45.059
4148114,8297.166000000001,45.059
4148115,8297.168,45.059
4148116,8297.17,45.059
4148117,8297.172,45.059
4148118,8297.174,44.664
4148119,8297.176000000001,44.664
4148120,8297.178,44.664
4148121,8297.18,44.664
4148122,8297.182,44.269
4148123,8297.184000000001,44.664
4148124,8297.186,44.269
4148125,8297.188,44.269
4148126,8297.19,43.8741
4148127,8297.192000000001,43.8741
4148128,8297.194,43.8741
4148129,8297.196,43.8741
4148130,8297.198,43.4791
4148131,8297.2,43.8741
4148132,8297.202000000001,43.4791
4148133,8297.204,43.4791
4148134,8297.206,43.4791
4148135,8297.208,43.4791
4148136,8297.210000000001,43.0841
4148137,8297.212,43.0841
4148138,8297.214,43.0841
4148139,8297.216,43.0841
4148140,8297.218,42.6891
4148141,8297.220000000001,42.6891
4148142,8297.222,42.2941
4148143,8297.224,42.2941
4148144,8297.226,42.2941
4148145,8297.228000000001,42.2941
4148146,8297.23,41.8992
4148147,8297.232,41.8992
4148148,8297.234,41.8992
4148149,8297.236,41.8992
4148150,8297.238000000001,41.8992
4148151,8297.24,41.8992
4148152,8297.242,41.8992
4148153,8297.244,41.8992
4148154,8297.246000000001,41.5042
4148155,8297.248,41.5042
4148156,8297.25,41.5042
4148157,8297.252,41.5042
4148158,8297.254,41.5042
4148159,8297.256000000001,41.5042
4148160,8297.258,41.5042
4148161,8297.26,41.5042
4148162,8297.262,41.1092
4148163,8297.264000000001,41.1092
4148164,8297.266,41.1092
4148165,8297.268,41.1092
4148166,8297.27,41.1092
4148167,8297.272,41.1092
4148168,8297.274000000001,41.1092
4148169,8297.276,41.1092
4148170,8297.278,40.7142
4148171,8297.28,41.1092
4148172,8297.282000000001,40.7142
4148173,8297.284,40.7142
4148174,8297.286,40.7142
4148175,8297.288,41.1092
4148176,8297.29,40.7142
4148177,8297.292000000001,40.7142
4148178,8297.294,40.7142
4148179,8297.296,40.7142
4148180,8297.298,40.7142
4148181,8297.300000000001,40.7142
4148182,8297.302,40.7142
4148183,8297.304,40.7142
4148184,8297.306,40.7142
4148185,8297.308,40.7142
4148186,8297.310000000001,40.7142
4148187,8297.312,40.7142
4148188,8297.314,40.7142
4148189,8297.316,40.7142
4148190,8297.318000000001,40.3192
4148191,8297.32,40.7142
4148192,8297.322,40.3192
4148193,8297.324,40.3192
4148194,8297.326000000001,40.3192
4148195,8297.328,40.3192
4148196,8297.33,40.3192
4148197,8297.332,39.9242
4148198,8297.334,39.9242
4148199,8297.336000000001,39.9242
4148200,8297.338,39.9242
4148201,8297.34,39.9242
4148202,8297.342,39.9242
4148203,8297.344000000001,39.9242
4148204,8297.346,39.9242
4148205,8297.348,39.5293
4148206,8297.35,39.5293
4148207,8297.352,39.9242
4148208,8297.354000000001,39.9242
4148209,8297.356,39.9242
4148210,8297.358,39.9242
4148211,8297.36,39.9242
4148212,8297.362000000001,39.9242
4148213,8297.364,39.9242
4148214,8297.366,39.9242
4148215,8297.368,39.9242
4148216,8297.37,39.9242
4148217,8297.372000000001,39.5293
4148218,8297.374,39.5293
4148219,8297.376,39.9242
4148220,8297.378,39.9242
4148221,8297.380000000001,39.9242
4148222,8297.382,39.5293
4148223,8297.384,39.9242
4148224,8297.386,39.9242
4148225,8297.388,39.9242
4148226,8297.390000000001,39.9242
4148227,8297.392,39.9242
4148228,8297.394,39.5293
4148229,8297.396,39.5293
4148230,8297.398000000001,39.9242
4148231,8297.4,39.9242
4148232,8297.402,39.9242
4148233,8297.404,39.9242
4148234,8297.406,39.9242
4148235,8297.408000000001,39.5293
4148236,8297.41,39.9242
4148237,8297.412,39.9242
4148238,8297.414,39.9242
4148239,8297.416000000001,39.9242
4148240,8297.418,39.9242
4148241,8297.42,39.9242
4148242,8297.422,39.9242
4148243,8297.424,39.9242
4148244,8297.426000000001,39.9242
4148245,8297.428,39.9242
4148246,8297.43,39.9242
4148247,8297.432,39.9242
4148248,8297.434000000001,39.9242
4148249,8297.436,40.3192
4148250,8297.438,40.3192
4148251,8297.44,40.3192
4148252,8297.442000000001,40.3192
4148253,8297.444,40.3192
4148254,8297.446,40.3192
4148255,8297.448,40.3192
4148256,8297.45,39.9242
4148257,8297.452000000001,39.9242
4148258,8297.454,39.9242
4148259,8297.456,39.9242
4148260,8297.458,39.9242
4148261,8297.460000000001,39.9242
4148262,8297.462,39.9242
4148263,8297.464,39.9242
4148264,8297.466,39.9242
4148265,8297.468,39.9242
4148266,8297.470000000001,39.9242
4148267,8297.472,39.9242
4148268,8297.474,39.9242
4148269,8297.476,39.9242
4148270,8297.478000000001,39.5293
4148271,8297.48,39.9242
4148272,8297.482,39.9242
4148273,8297.484,39.9242
4148274,8297.486,39.5293
4148275,8297.488000000001,39.5293
4148276,8297.49,39.9242
4148277,8297.492,39.9242
4148278,8297.494,39.5293
4148279,8297.496000000001,39.9242
4148280,8297.498,39.9242
4148281,8297.5,39.9242
4148282,8297.502,39.9242
4148283,8297.504,39.9242
4148284,8297.506000000001,39.9242
4148285,8297.508,39.9242
4148286,8297.51,39.9242
4148287,8297.512,39.5293
4148288,8297.514000000001,39.5293
4148289,8297.516,39.5293
4148290,8297.518,39.5293
4148291,8297.52,39.5293
4148292,8297.522,39.5293
4148293,8297.524000000001,39.5293
4148294,8297.526,39.5293
4148295,8297.528,39.1343
4148296,8297.53,39.1343
4148297,8297.532000000001,39.1343
4148298,8297.534,39.1343
4148299,8297.536,39.1343
4148300,8297.538,39.1343
4148301,8297.54,39.1343
4148302,8297.542000000001,39.1343
4148303,8297.544,39.1343
4148304,8297.546,39.1343
4148305,8297.548,39.1343
4148306,8297.550000000001,38.7393
4148307,8297.552,38.7393
4148308,8297.554,38.7393
4148309,8297.556,38.7393
4148310,8297.558,38.7393
4148311,8297.560000000001,38.7393
4148312,8297.562,38.7393
4148313,8297.564,38.7393
4148314,8297.566,38.7393
4148315,8297.568000000001,38.7393
4148316,8297.57,38.7393
4148317,8297.572,38.7393
4148318,8297.574,38.7393
4148319,8297.576000000001,38.3443
4148320,8297.578,38.7393
4148321,8297.58,38.7393
4148322,8297.582,38.3443
4148323,8297.584,38.7393
4148324,8297.586000000001,38.7393
4148325,8297.588,38.7393
4148326,8297.59,38.7393
4148327,8297.592,38.3443
4148328,8297.594000000001,38.7393
4148329,8297.596,38.7393
4148330,8297.598,38.3443
4148331,8297.6,38.7393
4148332,8297.602,38.7393
4148333,8297.604000000001,38.7393
4148334,8297.606,38.7393
4148335,8297.608,38.7393
4148336,8297.61,38.7393
4148337,8297.612000000001,38.7393
4148338,8297.614,38.7393
4148339,8297.616,38.7393
4148340,8297.618,38.3443
4148341,8297.62,38.3443
4148342,8297.622000000001,38.3443
4148343,8297.624,38.3443
4148344,8297.626,38.3443
4148345,8297.628,38.3443
4148346,8297.630000000001,38.3443
4148347,8297.632,38.3443
4148348,8297.634,37.9493
4148349,8297.636,38.3443
4148350,8297.638,38.3443
4148351,8297.640000000001,38.3443
4148352,8297.642,38.3443
4148353,8297.644,38.3443
4148354,8297.646,37.9493
4148355,8297.648000000001,38.3443
4148356,8297.65,37.9493
4148357,8297.652,38.3443
4148358,8297.654,38.3443
4148359,8297.656,38.3443
4148360,8297.658000000001,38.3443
4148361,8297.66,38.3443
4148362,8297.662,38.3443
4148363,8297.664,38.3443
4148364,8297.666000000001,37.9493
4148365,8297.668,37.9493
4148366,8297.67,38.3443
4148367,8297.672,38.3443
4148368,8297.674,38.3443
4148369,8297.676000000001,38.3443
4148370,8297.678,37.9493
4148371,8297.68,38.3443
4148372,8297.682,38.3443
4148373,8297.684000000001,38.3443
4148374,8297.686,38.3443
4148375,8297.688,38.3443
4148376,8297.69,38.3443
4148377,8297.692000000001,38.3443
4148378,8297.694,38.3443
4148379,8297.696,38.3443
4148380,8297.698,38.7393
4148381,8297.7,38.7393
4148382,8297.702000000001,38.3443
4148383,8297.704,38.7393
4148384,8297.706,38.7393
4148385,8297.708,38.7393
4148386,8297.710000000001,38.7393
4148387,8297.712,38.7393
4148388,8297.714,38.7393
4148389,8297.716,38.3443
4148390,8297.718,38.3443
4148391,8297.720000000001,38.7393
4148392,8297.722,38.7393
4148393,8297.724,38.7393
4148394,8297.726,38.7393
4148395,8297.728000000001,38.7393
4148396,8297.73,38.3443
4148397,8297.732,38.7393
4148398,8297.734,38.7393
4148399,8297.736,38.7393
4148400,8297.738000000001,38.7393
4148401,8297.74,38.7393
4148402,8297.742,38.7393
4148403,8297.744,38.7393
4148404,8297.746000000001,38.7393
4148405,8297.748,38.7393
4148406,8297.75,38.7393
4148407,8297.752,38.7393
4148408,8297.754,38.7393
4148409,8297.756000000001,38.7393
4148410,8297.758,38.7393
4148411,8297.76,38.7393
4148412,8297.762,38.3443
4148413,8297.764000000001,38.3443
4148414,8297.766,38.7393
4148415,8297.768,38.7393
4148416,8297.77,38.7393
4148417,8297.772,38.7393
4148418,8297.774000000001,38.7393
4148419,8297.776,38.3443
4148420,8297.778,38.7393
4148421,8297.78,38.3443
4148422,8297.782000000001,38.3443
4148423,8297.784,38.7393
4148424,8297.786,38.3443
4148425,8297.788,38.3443
4148426,8297.79,38.7393
4148427,8297.792000000001,38.7393
4148428,8297.794,38.7393
4148429,8297.796,38.7393
4148430,8297.798,38.7393
4148431,8297.800000000001,38.7393
4148432,8297.802,38.7393
4148433,8297.804,38.3443
4148434,8297.806,38.3443
4148435,8297.808,38.3443
4148436,8297.810000000001,38.7393
4148437,8297.812,38.7393
4148438,8297.814,38.7393
4148439,8297.816,38.7393
4148440,8297.818000000001,38.7393
4148441,8297.82,38.7393
4148442,8297.822,38.7393
4148443,8297.824,38.7393
4148444,8297.826000000001,38.7393
4148445,8297.828,38.7393
4148446,8297.83,38.7393
4148447,8297.832,38.7393
4148448,8297.834,38.3443
4148449,8297.836000000001,38.7393
4148450,8297.838,38.7393
4148451,8297.84,38.7393
4148452,8297.842,38.7393
4148453,8297.844000000001,38.3443
4148454,8297.846,38.7393
4148455,8297.848,38.3443
4148456,8297.85,38.3443
4148457,8297.852,38.7393
4148458,8297.854000000001,38.7393
4148459,8297.856,38.7393
4148460,8297.858,38.7393
4148461,8297.86,38.7393
4148462,8297.862000000001,38.7393
4148463,8297.864,38.7393
4148464,8297.866,39.1343
4148465,8297.868,39.1343
4148466,8297.87,39.1343
4148467,8297.872000000001,39.1343
4148468,8297.874,39.1343
4148469,8297.876,39.1343
4148470,8297.878,39.1343
4148471,8297.880000000001,39.1343
4148472,8297.882,39.1343
4148473,8297.884,39.1343
4148474,8297.886,39.1343
4148475,8297.888,39.1343
4148476,8297.890000000001,39.1343
4148477,8297.892,39.5293
4148478,8297.894,39.9242
4148479,8297.896,39.5293
4148480,8297.898000000001,39.5293
4148481,8297.9,39.9242
4148482,8297.902,39.9242
4148483,8297.904,39.5293
4148484,8297.906,39.9242
4148485,8297.908000000001,39.9242
4148486,8297.91,39.9242
4148487,8297.912,40.3192
4148488,8297.914,40.3192
4148489,8297.916000000001,40.3192
4148490,8297.918,40.3192
4148491,8297.92,40.3192
4148492,8297.922,40.7142
4148493,8297.924,40.7142
4148494,8297.926000000001,40.7142
4148495,8297.928,41.1092
4148496,8297.93,41.1092
4148497,8297.932,41.1092
4148498,8297.934000000001,41.1092
4148499,8297.936,41.5042
4148500,8297.938,41.5042
4148501,8297.94,41.5042
4148502,8297.942000000001,41.5042
4148503,8297.944,41.8992
4148504,8297.946,41.8992
4148505,8297.948,41.8992
4148506,8297.95,42.2941
4148507,8297.952000000001,42.2941
4148508,8297.954,42.2941
4148509,8297.956,42.6891
4148510,8297.958,42.6891
4148511,8297.960000000001,42.6891
4148512,8297.962,42.6891
4148513,8297.964,43.0841
4148514,8297.966,43.0841
4148515,8297.968,43.0841
4148516,8297.970000000001,43.4791
4148517,8297.972,43.4791
4148518,8297.974,43.4791
4148519,8297.976,43.8741
4148520,8297.978000000001,43.4791
4148521,8297.98,43.4791
4148522,8297.982,43.8741
4148523,8297.984,43.8741
4148524,8297.986,43.8741
4148525,8297.988000000001,44.269
4148526,8297.99,44.269
4148527,8297.992,43.8741
4148528,8297.994,43.8741
4148529,8297.996000000001,43.8741
4148530,8297.998,43.8741
4148531,8298.0,43.8741
4148532,8298.002,44.269
4148533,8298.004,44.269
4148534,8298.006000000001,44.269
4148535,8298.008,44.269
4148536,8298.01,43.8741
4148537,8298.012,43.8741
4148538,8298.014000000001,43.8741
4148539,8298.016,43.8741
4148540,8298.018,43.4791
4148541,8298.02,43.4791
4148542,8298.022,43.8741
4148543,8298.024000000001,43.4791
4148544,8298.026,43.4791
4148545,8298.028,43.4791
4148546,8298.03,43.0841
4148547,8298.032000000001,43.0841
4148548,8298.034,43.0841
4148549,8298.036,43.0841
4148550,8298.038,43.0841
4148551,8298.04,43.0841
4148552,8298.042000000001,42.6891
4148553,8298.044,42.6891
4148554,8298.046,42.6891
4148555,8298.048,42.6891
4148556,8298.050000000001,42.2941
4148557,8298.052,42.2941
4148558,8298.054,42.2941
4148559,8298.056,42.2941
4148560,8298.058,41.8992
4148561,8298.060000000001,42.2941
4148562,8298.062,41.8992
4148563,8298.064,41.8992
4148564,8298.066,41.8992
4148565,8298.068000000001,41.8992
4148566,8298.07,41.5042
4148567,8298.072,41.5042
4148568,8298.074,41.5042
4148569,8298.076000000001,41.1092
4148570,8298.078,41.1092
4148571,8298.08,41.1092
4148572,8298.082,41.1092
4148573,8298.084,41.1092
4148574,8298.086000000001,41.1092
4148575,8298.088,41.1092
4148576,8298.09,41.1092
4148577,8298.092,40.7142
4148578,8298.094000000001,41.1092
4148579,8298.096,40.7142
4148580,8298.098,41.1092
4148581,8298.1,40.7142
4148582,8298.102,40.7142
4148583,8298.104000000001,40.7142
4148584,8298.106,40.7142
4148585,8298.108,40.7142
4148586,8298.11,40.7142
4148587,8298.112000000001,40.7142
4148588,8298.114,40.3192
4148589,8298.116,40.3192
4148590,8298.118,40.3192
4148591,8298.12,40.3192
4148592,8298.122000000001,40.3192
4148593,8298.124,40.3192
4148594,8298.126,39.9242
4148595,8298.128,39.9242
4148596,8298.130000000001,39.9242
4148597,8298.132,39.9242
4148598,8298.134,39.9242
4148599,8298.136,39.9242
4148600,8298.138,39.9242
4148601,8298.140000000001,39.9242
4148602,8298.142,39.9242
4148603,8298.144,39.9242
4148604,8298.146,39.9242
4148605,8298.148000000001,39.9242
4148606,8298.15,39.5293
4148607,8298.152,39.5293
4148608,8298.154,39.5293
4148609,8298.156,39.5293
4148610,8298.158000000001,39.5293
4148611,8298.16,39.5293
4148612,8298.162,39.5293
4148613,8298.164,39.5293
4148614,8298.166000000001,39.5293
4148615,8298.168,39.1343
4148616,8298.17,39.5293
4148617,8298.172,39.5293
4148618,8298.174,39.5293
4148619,8298.176000000001,39.1343
4148620,8298.178,39.1343
4148621,8298.18,39.1343
4148622,8298.182,39.1343
4148623,8298.184000000001,39.1343
4148624,8298.186,39.1343
4148625,8298.188,39.1343
4148626,8298.19,39.1343
4148627,8298.192000000001,39.1343
4148628,8298.194,38.7393
4148629,8298.196,38.7393
4148630,8298.198,38.7393
4148631,8298.2,38.7393
4148632,8298.202000000001,38.7393
4148633,8298.204,38.7393
4148634,8298.206,38.7393
4148635,8298.208,38.7393
4148636,8298.210000000001,38.7393
4148637,8298.212,38.7393
4148638,8298.214,38.7393
4148639,8298.216,38.7393
4148640,8298.218,38.3443
4148641,8298.220000000001,38.3443
4148642,8298.222,38.3443
4148643,8298.224,38.7393
4148644,8298.226,38.3443
4148645,8298.228000000001,38.7393
4148646,8298.23,38.7393
4148647,8298.232,38.7393
4148648,8298.234,38.3443
4148649,8298.236,38.7393
4148650,8298.238000000001,38.7393
4148651,8298.24,38.7393
4148652,8298.242,38.7393
4148653,8298.244,38.7393
4148654,8298.246000000001,38.7393
4148655,8298.248,38.7393
4148656,8298.25,38.7393
4148657,8298.252,39.1343
4148658,8298.254,38.7393
4148659,8298.256000000001,38.7393
4148660,8298.258,38.7393
4148661,8298.26,38.7393
4148662,8298.262,38.7393
4148663,8298.264000000001,39.1343
4148664,8298.266,38.7393
4148665,8298.268,39.1343
4148666,8298.27,39.1343
4148667,8298.272,39.1343
4148668,8298.274000000001,39.1343
4148669,8298.276,39.1343
4148670,8298.278,39.1343
4148671,8298.28,39.1343
4148672,8298.282000000001,39.1343
4148673,8298.284,38.7393
4148674,8298.286,39.1343
4148675,8298.288,39.1343
4148676,8298.29,39.1343
4148677,8298.292000000001,39.1343
4148678,8298.294,39.1343
4148679,8298.296,39.1343
4148680,8298.298,39.1343
4148681,8298.300000000001,39.5293
4148682,8298.302,39.5293
4148683,8298.304,39.5293
4148684,8298.306,39.5293
4148685,8298.308,39.1343
4148686,8298.310000000001,39.1343
4148687,8298.312,39.5293
4148688,8298.314,39.1343
4148689,8298.316,39.1343
4148690,8298.318000000001,39.1343
4148691,8298.32,39.1343
4148692,8298.322,39.1343
4148693,8298.324,39.1343
4148694,8298.326000000001,39.1343
4148695,8298.328,39.1343
4148696,8298.33,39.1343
4148697,8298.332,39.1343
4148698,8298.334,39.1343
4148699,8298.336000000001,39.1343
4148700,8298.338,39.1343
4148701,8298.34,39.1343
4148702,8298.342,38.7393
4148703,8298.344000000001,38.7393
4148704,8298.346,38.7393
4148705,8298.348,38.7393
4148706,8298.35,38.7393
4148707,8298.352,38.7393
4148708,8298.354000000001,38.7393
4148709,8298.356,38.7393
4148710,8298.358,38.7393
4148711,8298.36,38.7393
4148712,8298.362000000001,38.7393
4148713,8298.364,38.3443
4148714,8298.366,38.3443
4148715,8298.368,38.7393
4148716,8298.37,38.7393
4148717,8298.372000000001,38.3443
4148718,8298.374,38.3443
4148719,8298.376,37.9493
4148720,8298.378,38.3443
4148721,8298.380000000001,38.3443
4148722,8298.382,38.3443
4148723,8298.384,37.9493
4148724,8298.386,37.9493
4148725,8298.388,37.9493
4148726,8298.390000000001,37.9493
4148727,8298.392,37.9493
4148728,8298.394,37.9493
4148729,8298.396,37.9493
4148730,8298.398000000001,37.9493
4148731,8298.4,38.3443
4148732,8298.402,37.9493
4148733,8298.404,37.5543
4148734,8298.406,37.9493
4148735,8298.408000000001,37.9493
4148736,8298.41,37.9493
4148737,8298.412,37.9493
4148738,8298.414,37.9493
4148739,8298.416000000001,37.9493
4148740,8298.418,37.5543
4148741,8298.42,37.9493
4148742,8298.422,37.9493
4148743,8298.424,37.9493
4148744,8298.426000000001,37.9493
4148745,8298.428,38.3443
4148746,8298.43,38.3443
4148747,8298.432,37.9493
4148748,8298.434000000001,38.3443
4148749,8298.436,37.9493
4148750,8298.438,38.3443
4148751,8298.44,38.3443
4148752,8298.442000000001,38.3443
4148753,8298.444,37.9493
4148754,8298.446,38.3443
4148755,8298.448,38.3443
4148756,8298.45,38.3443
4148757,8298.452000000001,38.3443
4148758,8298.454,38.3443
4148759,8298.456,38.3443
4148760,8298.458,38.3443
4148761,8298.460000000001,37.9493
4148762,8298.462,38.3443
4148763,8298.464,38.3443
4148764,8298.466,37.9493
4148765,8298.468,37.9493
4148766,8298.470000000001,38.3443
4148767,8298.472,38.3443
4148768,8298.474,38.3443
4148769,8298.476,38.3443
4148770,8298.478000000001,38.3443
4148771,8298.48,38.3443
4148772,8298.482,38.3443
4148773,8298.484,38.3443
4148774,8298.486,38.3443
4148775,8298.488000000001,38.3443
4148776,8298.49,38.3443
4148777,8298.492,38.3443
4148778,8298.494,38.3443
4148779,8298.496000000001,38.3443
4148780,8298.498,37.9493
4148781,8298.5,37.9493
4148782,8298.502,38.3443
4148783,8298.504,38.3443
4148784,8298.506000000001,38.3443
4148785,8298.508,38.3443
4148786,8298.51,38.3443
4148787,8298.512,37.9493
4148788,8298.514000000001,37.9493
4148789,8298.516,38.3443
4148790,8298.518,38.3443
4148791,8298.52,37.9493
4148792,8298.522,38.3443
4148793,8298.524000000001,38.3443
4148794,8298.526,37.9493
4148795,8298.528,38.3443
4148796,8298.53,38.3443
4148797,8298.532000000001,38.3443
4148798,8298.534,38.3443
4148799,8298.536,38.3443
4148800,8298.538,38.3443
4148801,8298.54,38.3443
4148802,8298.542000000001,38.3443
4148803,8298.544,38.3443
4148804,8298.546,38.3443
4148805,8298.548,38.3443
4148806,8298.550000000001,38.3443
4148807,8298.552,38.7393
4148808,8298.554,38.7393
4148809,8298.556,38.7393
4148810,8298.558,38.3443
4148811,8298.560000000001,38.3443
4148812,8298.562,38.3443
4148813,8298.564,38.3443
4148814,8298.566,38.3443
4148815,8298.568000000001,38.3443
4148816,8298.57,38.7393
4148817,8298.572,38.7393
4148818,8298.574,38.7393
4148819,8298.576000000001,38.7393
4148820,8298.578,38.7393
4148821,8298.58,38.7393
4148822,8298.582,38.7393
4148823,8298.584,38.7393
4148824,8298.586000000001,38.7393
4148825,8298.588,38.7393
4148826,8298.59,38.7393
4148827,8298.592,38.7393
4148828,8298.594000000001,38.7393
4148829,8298.596,38.7393
4148830,8298.598,38.7393
4148831,8298.6,38.7393
4148832,8298.602,38.7393
4148833,8298.604000000001,38.7393
4148834,8298.606,38.7393
4148835,8298.608,38.7393
4148836,8298.61,38.7393
4148837,8298.612000000001,38.7393
4148838,8298.614,38.7393
4148839,8298.616,38.7393
4148840,8298.618,38.7393
4148841,8298.62,38.7393
4148842,8298.622000000001,38.7393
4148843,8298.624,38.7393
4148844,8298.626,38.7393
4148845,8298.628,38.7393
4148846,8298.630000000001,38.7393
4148847,8298.632,38.7393
4148848,8298.634,39.1343
4148849,8298.636,39.1343
4148850,8298.638,39.1343
4148851,8298.640000000001,39.1343
4148852,8298.642,39.1343
4148853,8298.644,38.7393
4148854,8298.646,39.1343
4148855,8298.648000000001,39.1343
4148856,8298.65,39.1343
4148857,8298.652,39.1343
4148858,8298.654,39.1343
4148859,8298.656,39.1343
4148860,8298.658000000001,39.1343
4148861,8298.66,39.1343
4148862,8298.662,39.1343
4148863,8298.664,39.1343
4148864,8298.666000000001,39.1343
4148865,8298.668,39.1343
4148866,8298.67,39.1343
4148867,8298.672,39.1343
4148868,8298.674,39.1343
4148869,8298.676000000001,39.1343
4148870,8298.678,39.1343
4148871,8298.68,38.7393
4148872,8298.682,39.1343
4148873,8298.684000000001,39.1343
4148874,8298.686,39.1343
4148875,8298.688,39.1343
4148876,8298.69,39.1343
4148877,8298.692000000001,39.1343
4148878,8298.694,39.1343
4148879,8298.696,39.1343
4148880,8298.698,39.5293
4148881,8298.7,39.5293
4148882,8298.702000000001,39.5293
4148883,8298.704,39.1343
4148884,8298.706,39.5293
4148885,8298.708,39.5293
4148886,8298.710000000001,39.5293
4148887,8298.712,39.5293
4148888,8298.714,39.5293
4148889,8298.716,39.5293
4148890,8298.718,39.5293
4148891,8298.720000000001,39.9242
4148892,8298.722,39.9242
4148893,8298.724,39.9242
4148894,8298.726,39.5293
4148895,8298.728000000001,39.9242
4148896,8298.73,39.9242
4148897,8298.732,39.9242
4148898,8298.734,39.9242
4148899,8298.736,39.9242
4148900,8298.738000000001,40.3192
4148901,8298.74,39.9242
4148902,8298.742,40.3192
4148903,8298.744,40.3192
4148904,8298.746000000001,40.3192
4148905,8298.748,40.3192
4148906,8298.75,40.7142
4148907,8298.752,40.7142
4148908,8298.754,40.7142
4148909,8298.756000000001,40.7142
4148910,8298.758,40.7142
4148911,8298.76,41.1092
4148912,8298.762,41.1092
4148913,8298.764000000001,41.1092
4148914,8298.766,41.5042
4148915,8298.768,41.5042
4148916,8298.77,41.5042
4148917,8298.772,41.5042
4148918,8298.774000000001,41.8992
4148919,8298.776,41.8992
4148920,8298.778,41.8992
4148921,8298.78,42.2941
4148922,8298.782000000001,42.2941
4148923,8298.784,42.2941
4148924,8298.786,42.2941
4148925,8298.788,42.6891
4148926,8298.79,42.6891
4148927,8298.792000000001,42.6891
4148928,8298.794,42.6891
4148929,8298.796,43.0841
4148930,8298.798,43.0841
4148931,8298.800000000001,43.0841
4148932,8298.802,43.4791
4148933,8298.804,43.4791
4148934,8298.806,43.4791
4148935,8298.808,43.8741
4148936,8298.810000000001,43.8741
4148937,8298.812,43.8741
4148938,8298.814,43.8741
4148939,8298.816,43.8741
4148940,8298.818000000001,43.8741
4148941,8298.82,44.269
4148942,8298.822,44.269
4148943,8298.824,44.269
4148944,8298.826000000001,44.269
4148945,8298.828,44.664
4148946,8298.83,44.269
4148947,8298.832,44.269
4148948,8298.834,44.664
4148949,8298.836000000001,44.664
4148950,8298.838,44.664
4148951,8298.84,45.059
4148952,8298.842,45.059
4148953,8298.844000000001,44.664
4148954,8298.846,44.664
4148955,8298.848,44.664
4148956,8298.85,44.664
4148957,8298.852,45.059
4148958,8298.854000000001,45.059
4148959,8298.856,44.664
4148960,8298.858,44.664
4148961,8298.86,44.664
4148962,8298.862000000001,44.269
4148963,8298.864,44.269
4148964,8298.866,44.269
4148965,8298.868,44.269
4148966,8298.87,44.269
4148967,8298.872000000001,44.269
4148968,8298.874,44.269
4148969,8298.876,43.8741
4148970,8298.878,43.8741
4148971,8298.880000000001,43.8741
4148972,8298.882,43.8741
4148973,8298.884,43.4791
4148974,8298.886,43.4791
4148975,8298.888,43.4791
4148976,8298.890000000001,43.4791
4148977,8298.892,43.4791
4148978,8298.894,43.0841
4148979,8298.896,43.0841
4148980,8298.898000000001,43.0841
4148981,8298.9,43.0841
4148982,8298.902,43.0841
4148983,8298.904,42.6891
4148984,8298.906,42.6891
4148985,8298.908000000001,42.6891
4148986,8298.91,42.2941
4148987,8298.912,42.6891
4148988,8298.914,42.2941
4148989,8298.916000000001,42.2941
4148990,8298.918,42.2941
4148991,8298.92,42.2941
4148992,8298.922,42.2941
4148993,8298.924,41.8992
4148994,8298.926000000001,41.8992
4148995,8298.928,41.8992
4148996,8298.93,41.8992
4148997,8298.932,41.5042
4148998,8298.934000000001,41.5042
4148999,8298.936,41.5042
4149000,8298.938,41.5042
4149001,8298.94,41.5042
4149002,8298.942000000001,41.5042
4149003,8298.944,41.5042
4149004,8298.946,41.1092
4149005,8298.948,41.1092
4149006,8298.95,41.1092
4149007,8298.952000000001,41.1092
4149008,8298.954,41.1092
4149009,8298.956,41.1092
4149010,8298.958,41.1092
4149011,8298.960000000001,41.1092
4149012,8298.962,40.7142
4149013,8298.964,41.1092
4149014,8298.966,40.7142
4149015,8298.968,40.7142
4149016,8298.970000000001,40.7142
4149017,8298.972,40.7142
4149018,8298.974,40.7142
4149019,8298.976,40.3192
4149020,8298.978000000001,40.7142
4149021,8298.98,40.7142
4149022,8298.982,40.7142
4149023,8298.984,40.7142
4149024,8298.986,40.3192
4149025,8298.988000000001,40.3192
4149026,8298.99,40.3192
4149027,8298.992,40.3192
4149028,8298.994,40.3192
4149029,8298.996000000001,40.3192
4149030,8298.998,40.3192
4149031,8299.0,39.9242
4149032,8299.002,39.9242
4149033,8299.004,39.9242
4149034,8299.006000000001,39.9242
4149035,8299.008,39.9242
4149036,8299.01,40.3192
4149037,8299.012,39.9242
4149038,8299.014000000001,39.9242
4149039,8299.016,39.9242
4149040,8299.018,39.9242
4149041,8299.02,39.9242
4149042,8299.022,39.9242
4149043,8299.024000000001,39.9242
4149044,8299.026,39.9242
4149045,8299.028,39.9242
4149046,8299.03,39.9242
4149047,8299.032000000001,39.9242
4149048,8299.034,39.9242
4149049,8299.036,39.9242
4149050,8299.038,39.9242
4149051,8299.04,39.5293
4149052,8299.042000000001,39.5293
4149053,8299.044,39.9242
4149054,8299.046,39.9242
4149055,8299.048,39.9242
4149056,8299.050000000001,39.9242
4149057,8299.052,39.9242
4149058,8299.054,39.9242
4149059,8299.056,39.9242
4149060,8299.058,39.9242
4149061,8299.060000000001,39.9242
4149062,8299.062,39.9242
4149063,8299.064,39.9242
4149064,8299.066,39.9242
4149065,8299.068000000001,39.9242
4149066,8299.07,39.9242
4149067,8299.072,39.9242
4149068,8299.074,39.9242
4149069,8299.076000000001,39.9242
4149070,8299.078,39.9242
4149071,8299.08,39.9242
4149072,8299.082,39.9242
4149073,8299.084,39.9242
4149074,8299.086000000001,39.5293
4149075,8299.088,39.5293
4149076,8299.09,39.9242
4149077,8299.092,39.5293
4149078,8299.094000000001,39.9242
4149079,8299.096,39.9242
4149080,8299.098,39.5293
4149081,8299.1,39.9242
4149082,8299.102,39.9242
4149083,8299.104000000001,39.9242
4149084,8299.106,39.9242
4149085,8299.108,39.5293
4149086,8299.11,39.5293
4149087,8299.112000000001,39.9242
4149088,8299.114,39.9242
4149089,8299.116,39.9242
4149090,8299.118,39.9242
4149091,8299.12,39.9242
4149092,8299.122000000001,39.9242
4149093,8299.124,39.9242
4149094,8299.126,39.9242
4149095,8299.128,39.9242
4149096,8299.130000000001,39.9242
4149097,8299.132,39.9242
4149098,8299.134,39.9242
4149099,8299.136,40.3192
4149100,8299.138,40.3192
4149101,8299.140000000001,40.3192
4149102,8299.142,39.9242
4149103,8299.144,40.3192
4149104,8299.146,40.3192
4149105,8299.148000000001,40.3192
4149106,8299.15,40.3192
4149107,8299.152,39.9242
4149108,8299.154,40.3192
4149109,8299.156,40.3192
4149110,8299.158000000001,40.3192
4149111,8299.16,40.3192
4149112,8299.162,40.3192
4149113,8299.164,39.9242
4149114,8299.166000000001,40.3192
4149115,8299.168,40.3192
4149116,8299.17,40.3192
4149117,8299.172,40.3192
4149118,8299.174,39.9242
4149119,8299.176000000001,40.3192
4149120,8299.178,39.9242
4149121,8299.18,39.9242
4149122,8299.182,39.9242
4149123,8299.184000000001,39.9242
4149124,8299.186,39.9242
4149125,8299.188,39.9242
4149126,8299.19,39.9242
4149127,8299.192000000001,39.9242
4149128,8299.194,39.9242
4149129,8299.196,39.9242
4149130,8299.198,39.5293
4149131,8299.2,39.9242
4149132,8299.202000000001,39.9242
4149133,8299.204,39.9242
4149134,8299.206,39.9242
4149135,8299.208,39.9242
4149136,8299.210000000001,39.5293
4149137,8299.212,39.9242
4149138,8299.214,39.9242
4149139,8299.216,39.5293
4149140,8299.218,39.5293
4149141,8299.220000000001,39.9242
4149142,8299.222,39.5293
4149143,8299.224,39.5293
4149144,8299.226,39.5293
4149145,8299.228000000001,39.5293
4149146,8299.23,39.5293
4149147,8299.232,39.5293
4149148,8299.234,39.5293
4149149,8299.236,39.5293
4149150,8299.238000000001,39.5293
4149151,8299.24,39.5293
4149152,8299.242,39.5293
4149153,8299.244,39.5293
4149154,8299.246000000001,39.5293
4149155,8299.248,39.5293
4149156,8299.25,39.1343
4149157,8299.252,39.1343
4149158,8299.254,39.5293
4149159,8299.256000000001,39.5293
4149160,8299.258,39.5293
4149161,8299.26,39.5293
4149162,8299.262,39.5293
4149163,8299.264000000001,39.5293
4149164,8299.266,39.5293
4149165,8299.268,39.1343
4149166,8299.27,39.1343
4149167,8299.272,39.1343
4149168,8299.274000000001,39.1343
4149169,8299.276,39.5293
4149170,8299.278,39.5293
4149171,8299.28,39.5293
4149172,8299.282000000001,39.5293
4149173,8299.284,39.5293
4149174,8299.286,39.1343
4149175,8299.288,39.5293
4149176,8299.29,39.5293
4149177,8299.292000000001,39.1343
4149178,8299.294,39.5293
4149179,8299.296,39.5293
4149180,8299.298,39.5293
4149181,8299.300000000001,39.5293
4149182,8299.302,39.5293
4149183,8299.304,39.5293
4149184,8299.306,39.5293
4149185,8299.308,39.5293
4149186,8299.310000000001,39.5293
4149187,8299.312,39.5293
4149188,8299.314,39.5293
4149189,8299.316,39.1343
4149190,8299.318000000001,39.1343
4149191,8299.32,39.5293
4149192,8299.322,39.5293
4149193,8299.324,39.5293
4149194,8299.326000000001,39.5293
4149195,8299.328,39.5293
4149196,8299.33,39.5293
4149197,8299.332,39.5293
4149198,8299.334,39.5293
4149199,8299.336000000001,39.5293
4149200,8299.338,39.5293
4149201,8299.34,39.5293
4149202,8299.342,39.5293
4149203,8299.344000000001,39.5293
4149204,8299.346,39.5293
4149205,8299.348,39.5293
4149206,8299.35,39.5293
4149207,8299.352,39.1343
4149208,8299.354000000001,39.5293
4149209,8299.356,39.5293
4149210,8299.358,39.5293
4149211,8299.36,39.5293
4149212,8299.362000000001,39.5293
4149213,8299.364,39.5293
4149214,8299.366,39.1343
4149215,8299.368,39.1343
4149216,8299.37,39.5293
4149217,8299.372000000001,39.5293
4149218,8299.374,39.5293
4149219,8299.376,39.5293
4149220,8299.378,39.5293
4149221,8299.380000000001,39.5293
4149222,8299.382,39.5293
4149223,8299.384,39.5293
4149224,8299.386,39.5293
4149225,8299.388,39.5293
4149226,8299.390000000001,39.5293
4149227,8299.392,39.1343
4149228,8299.394,39.5293
4149229,8299.396,39.1343
4149230,8299.398000000001,39.5293
4149231,8299.4,39.5293
4149232,8299.402,39.5293
4149233,8299.404,39.5293
4149234,8299.406,39.5293
4149235,8299.408000000001,39.5293
4149236,8299.41,39.1343
4149237,8299.412,39.5293
4149238,8299.414,39.5293
4149239,8299.416000000001,39.1343
4149240,8299.418,39.5293
4149241,8299.42,39.5293
4149242,8299.422,39.5293
4149243,8299.424,39.5293
4149244,8299.426000000001,39.5293
4149245,8299.428,39.5293
4149246,8299.43,39.5293
4149247,8299.432,39.5293
4149248,8299.434000000001,39.5293
4149249,8299.436,39.5293
4149250,8299.438,39.1343
4149251,8299.44,39.5293
4149252,8299.442000000001,39.1343
4149253,8299.444,39.5293
4149254,8299.446,39.5293
4149255,8299.448,39.5293
4149256,8299.45,39.5293
4149257,8299.452000000001,39.5293
4149258,8299.454,39.5293
4149259,8299.456,39.5293
4149260,8299.458,39.5293
4149261,8299.460000000001,39.5293
4149262,8299.462,39.5293
4149263,8299.464,39.5293
4149264,8299.466,39.9242
4149265,8299.468,39.9242
4149266,8299.470000000001,39.9242
4149267,8299.472,39.5293
4149268,8299.474,39.9242
4149269,8299.476,39.9242
4149270,8299.478000000001,39.9242
4149271,8299.48,39.9242
4149272,8299.482,39.9242
4149273,8299.484,39.9242
4149274,8299.486,39.9242
4149275,8299.488000000001,39.5293
4149276,8299.49,39.9242
4149277,8299.492,39.9242
4149278,8299.494,39.9242
4149279,8299.496000000001,39.5293
4149280,8299.498,39.9242
4149281,8299.5,39.1343
4149282,8299.502,39.5293
4149283,8299.504,39.9242
4149284,8299.506000000001,39.9242
4149285,8299.508,39.9242
4149286,8299.51,39.9242
4149287,8299.512,39.9242
4149288,8299.514000000001,39.5293
4149289,8299.516,39.9242
4149290,8299.518,39.9242
4149291,8299.52,39.5293
4149292,8299.522,39.9242
4149293,8299.524000000001,39.9242
4149294,8299.526,39.9242
4149295,8299.528,39.9242
4149296,8299.53,39.9242
4149297,8299.532000000001,39.5293
4149298,8299.534,39.9242
4149299,8299.536,39.9242
4149300,8299.538,39.9242
4149301,8299.54,39.9242
4149302,8299.542000000001,39.9242
4149303,8299.544,39.9242
4149304,8299.546,39.9242
4149305,8299.548,39.5293
4149306,8299.550000000001,39.9242
4149307,8299.552,39.9242
4149308,8299.554,39.9242
4149309,8299.556,39.9242
4149310,8299.558,39.9242
4149311,8299.560000000001,39.9242
4149312,8299.562,39.9242
4149313,8299.564,39.9242
4149314,8299.566,39.9242
4149315,8299.568000000001,39.9242
4149316,8299.57,40.3192
4149317,8299.572,40.3192
4149318,8299.574,40.3192
4149319,8299.576000000001,40.3192
4149320,8299.578,40.3192
4149321,8299.58,40.3192
4149322,8299.582,40.3192
4149323,8299.584,40.3192
4149324,8299.586000000001,40.7142
4149325,8299.588,40.7142
4149326,8299.59,40.7142
4149327,8299.592,40.7142
4149328,8299.594000000001,40.7142
4149329,8299.596,41.1092
4149330,8299.598,40.7142
4149331,8299.6,41.1092
4149332,8299.602,41.1092
4149333,8299.604000000001,41.5042
4149334,8299.606,41.5042
4149335,8299.608,41.5042
4149336,8299.61,41.5042
4149337,8299.612000000001,41.8992
4149338,8299.614,41.8992
4149339,8299.616,41.5042
4149340,8299.618,41.8992
4149341,8299.62,41.8992
4149342,8299.622000000001,42.2941
4149343,8299.624,42.2941
4149344,8299.626,42.6891
4149345,8299.628,42.6891
4149346,8299.630000000001,43.0841
4149347,8299.632,42.6891
4149348,8299.634,42.6891
4149349,8299.636,43.0841
4149350,8299.638,43.0841
4149351,8299.640000000001,43.0841
4149352,8299.642,43.0841
4149353,8299.644,43.0841
4149354,8299.646,43.4791
4149355,8299.648000000001,43.4791
4149356,8299.65,43.4791
4149357,8299.652,43.8741
4149358,8299.654,43.8741
4149359,8299.656,43.8741
4149360,8299.658000000001,44.269
4149361,8299.66,44.269
4149362,8299.662,44.269
4149363,8299.664,44.269
4149364,8299.666000000001,44.269
4149365,8299.668,44.269
4149366,8299.67,44.664
4149367,8299.672,44.664
4149368,8299.674,44.664
4149369,8299.676000000001,45.059
4149370,8299.678,45.059
4149371,8299.68,44.664
4149372,8299.682,44.269
4149373,8299.684000000001,44.664
4149374,8299.686,44.664
4149375,8299.688,44.664
4149376,8299.69,44.664
4149377,8299.692000000001,44.664
4149378,8299.694,44.664
4149379,8299.696,44.664
4149380,8299.698,44.664
4149381,8299.7,44.664
4149382,8299.702000000001,44.269
4149383,8299.704,44.664
4149384,8299.706,44.269
4149385,8299.708,44.269
4149386,8299.710000000001,44.269
4149387,8299.712,44.269
4149388,8299.714,44.269
4149389,8299.716,43.8741
4149390,8299.718,43.8741
4149391,8299.720000000001,43.8741
4149392,8299.722,43.8741
4149393,8299.724,43.8741
4149394,8299.726,43.4791
4149395,8299.728000000001,43.4791
4149396,8299.73,43.4791
4149397,8299.732,43.0841
4149398,8299.734,43.0841
4149399,8299.736,43.0841
4149400,8299.738000000001,43.0841
4149401,8299.74,43.0841
4149402,8299.742,43.0841
4149403,8299.744,42.6891
4149404,8299.746000000001,42.6891
4149405,8299.748,42.6891
4149406,8299.75,42.6891
4149407,8299.752,42.6891
4149408,8299.754,42.6891
4149409,8299.756000000001,42.2941
4149410,8299.758,42.6891
4149411,8299.76,42.2941
4149412,8299.762,42.2941
4149413,8299.764000000001,42.2941
4149414,8299.766,41.8992
4149415,8299.768,41.8992
4149416,8299.77,41.8992
4149417,8299.772,41.8992
4149418,8299.774000000001,41.8992
4149419,8299.776,41.5042
4149420,8299.778,41.5042
4149421,8299.78,41.5042
4149422,8299.782000000001,41.5042
4149423,8299.784,41.5042
4149424,8299.786,41.5042
4149425,8299.788,41.1092
4149426,8299.79,41.5042
4149427,8299.792000000001,41.1092
4149428,8299.794,41.1092
4149429,8299.796,41.1092
4149430,8299.798,41.1092
4149431,8299.800000000001,41.1092
4149432,8299.802,41.1092
4149433,8299.804,41.1092
4149434,8299.806,41.1092
4149435,8299.808,41.1092
4149436,8299.810000000001,40.7142
4149437,8299.812,41.1092
4149438,8299.814,40.7142
4149439,8299.816,40.7142
4149440,8299.818000000001,40.7142
4149441,8299.82,40.7142
4149442,8299.822,40.7142
4149443,8299.824,40.7142
4149444,8299.826000000001,40.7142
4149445,8299.828,40.7142
4149446,8299.83,40.7142
4149447,8299.832,40.7142
4149448,8299.834,40.7142
4149449,8299.836000000001,40.7142
4149450,8299.838,40.7142
4149451,8299.84,40.7142
4149452,8299.842,40.3192
4149453,8299.844000000001,40.3192
4149454,8299.846,40.3192
4149455,8299.848,40.7142
4149456,8299.85,40.3192
4149457,8299.852,40.3192
4149458,8299.854000000001,40.3192
4149459,8299.856,40.3192
4149460,8299.858,40.3192
4149461,8299.86,40.3192
4149462,8299.862000000001,40.3192
4149463,8299.864,40.3192
4149464,8299.866,40.3192
4149465,8299.868,40.3192
4149466,8299.87,40.3192
4149467,8299.872000000001,40.3192
4149468,8299.874,40.3192
4149469,8299.876,39.9242
4149470,8299.878,40.3192
4149471,8299.880000000001,40.3192
4149472,8299.882,39.9242
4149473,8299.884,39.9242
4149474,8299.886,39.9242
4149475,8299.888,39.9242
4149476,8299.890000000001,39.9242
4149477,8299.892,39.9242
4149478,8299.894,39.9242
4149479,8299.896,39.9242
4149480,8299.898000000001,40.3192
4149481,8299.9,39.9242
4149482,8299.902,39.5293
4149483,8299.904,39.9242
4149484,8299.906,39.9242
4149485,8299.908000000001,39.5293
4149486,8299.91,39.9242
4149487,8299.912,39.5293
4149488,8299.914,39.9242
4149489,8299.916000000001,39.9242
4149490,8299.918,39.9242
4149491,8299.92,39.9242
4149492,8299.922,39.9242
4149493,8299.924,39.9242
4149494,8299.926000000001,40.3192
4149495,8299.928,40.3192
4149496,8299.93,39.9242
4149497,8299.932,39.9242
4149498,8299.934000000001,40.3192
4149499,8299.936,39.9242
4149500,8299.938,40.3192
4149501,8299.94,40.3192
4149502,8299.942000000001,39.9242
4149503,8299.944,39.9242
4149504,8299.946,40.3192
4149505,8299.948,40.3192
4149506,8299.95,40.3192
4149507,8299.952000000001,40.3192
4149508,8299.954,40.3192
4149509,8299.956,40.3192
4149510,8299.958,40.3192
4149511,8299.960000000001,39.9242
4149512,8299.962,40.3192
4149513,8299.964,40.3192
4149514,8299.966,40.3192
4149515,8299.968,40.3192
4149516,8299.970000000001,40.3192
4149517,8299.972,40.3192
4149518,8299.974,40.3192
4149519,8299.976,40.3192
4149520,8299.978000000001,40.3192
4149521,8299.98,39.9242
4149522,8299.982,39.9242
4149523,8299.984,40.3192
4149524,8299.986,40.3192
4149525,8299.988000000001,40.3192
4149526,8299.99,40.3192
4149527,8299.992,40.3192
4149528,8299.994,40.3192
4149529,8299.996000000001,40.3192
4149530,8299.998,40.3192
4149531,8300.0,40.3192
4149532,8300.002,39.9242
4149533,8300.004,40.3192
4149534,8300.006000000001,40.3192
4149535,8300.008,39.9242
4149536,8300.01,40.3192
4149537,8300.012,39.9242
4149538,8300.014000000001,39.9242
4149539,8300.016,39.9242
4149540,8300.018,39.9242
4149541,8300.02,39.9242
4149542,8300.022,39.9242
4149543,8300.024000000001,39.9242
4149544,8300.026,39.9242
4149545,8300.028,39.9242
4149546,8300.03,39.9242
4149547,8300.032000000001,39.9242
4149548,8300.034,39.9242
4149549,8300.036,39.9242
4149550,8300.038,39.9242
4149551,8300.04,39.9242
4149552,8300.042000000001,39.9242
4149553,8300.044,39.9242
4149554,8300.046,39.9242
4149555,8300.048,39.9242
4149556,8300.050000000001,39.9242
4149557,8300.052,39.5293
4149558,8300.054,40.3192
4149559,8300.056,39.9242
4149560,8300.058,39.9242
4149561,8300.060000000001,39.9242
4149562,8300.062,39.9242
4149563,8300.064,39.9242
4149564,8300.066,39.9242
4149565,8300.068000000001,39.5293
4149566,8300.07,39.5293
4149567,8300.072,39.9242
4149568,8300.074,39.9242
4149569,8300.076000000001,39.9242
4149570,8300.078,39.9242
4149571,8300.08,39.9242
4149572,8300.082,39.9242
4149573,8300.084,39.5293
4149574,8300.086000000001,39.5293
4149575,8300.088,39.5293
4149576,8300.09,39.5293
4149577,8300.092,39.5293
4149578,8300.094000000001,39.5293
4149579,8300.096,39.5293
4149580,8300.098,39.5293
4149581,8300.1,39.5293
4149582,8300.102,39.5293
4149583,8300.104000000001,39.5293
4149584,8300.106,39.5293
4149585,8300.108,39.5293
4149586,8300.11,39.5293
4149587,8300.112000000001,39.5293
4149588,8300.114,39.1343
4149589,8300.116,39.5293
4149590,8300.118,39.5293
4149591,8300.12,39.5293
4149592,8300.122000000001,39.5293
4149593,8300.124,39.5293
4149594,8300.126,39.1343
4149595,8300.128,39.5293
4149596,8300.130000000001,39.5293
4149597,8300.132,39.5293
4149598,8300.134,39.5293
4149599,8300.136,39.5293
4149600,8300.138,39.1343
4149601,8300.140000000001,39.5293
4149602,8300.142,39.5293
4149603,8300.144,39.5293
4149604,8300.146,39.5293
4149605,8300.148000000001,39.5293
4149606,8300.15,39.5293
4149607,8300.152,39.5293
4149608,8300.154,39.1343
4149609,8300.156,39.5293
4149610,8300.158000000001,39.5293
4149611,8300.16,39.5293
4149612,8300.162,39.5293
4149613,8300.164,39.5293
4149614,8300.166000000001,39.5293
4149615,8300.168,39.1343
4149616,8300.17,39.5293
4149617,8300.172,39.5293
4149618,8300.174,39.5293
4149619,8300.176000000001,39.5293
4149620,8300.178,39.5293
4149621,8300.18,39.5293
4149622,8300.182,39.5293
4149623,8300.184000000001,39.5293
4149624,8300.186,39.5293
4149625,8300.188,39.5293
4149626,8300.19,39.5293
4149627,8300.192000000001,39.5293
4149628,8300.194,39.5293
4149629,8300.196,39.5293
4149630,8300.198,39.5293
4149631,8300.2,39.1343
4149632,8300.202000000001,39.5293
4149633,8300.204,39.5293
4149634,8300.206,39.5293
4149635,8300.208,39.5293
4149636,8300.210000000001,39.5293
4149637,8300.212,39.5293
4149638,8300.214,39.5293
4149639,8300.216,39.5293
4149640,8300.218,39.1343
4149641,8300.220000000001,39.5293
4149642,8300.222,39.5293
4149643,8300.224,39.5293
4149644,8300.226,39.5293
4149645,8300.228000000001,39.5293
4149646,8300.23,39.5293
4149647,8300.232,39.5293
4149648,8300.234,39.5293
4149649,8300.236,39.5293
4149650,8300.238000000001,39.5293
4149651,8300.24,39.5293
4149652,8300.242,39.5293
4149653,8300.244,39.1343
4149654,8300.246000000001,39.1343
4149655,8300.248,39.5293
4149656,8300.25,39.1343
4149657,8300.252,39.1343
4149658,8300.254,39.1343
4149659,8300.256000000001,39.5293
4149660,8300.258,39.1343
4149661,8300.26,39.5293
4149662,8300.262,39.5293
4149663,8300.264000000001,39.5293
4149664,8300.266,39.1343
4149665,8300.268,39.5293
4149666,8300.27,39.5293
4149667,8300.272,39.5293
4149668,8300.274000000001,39.5293
4149669,8300.276,39.5293
4149670,8300.278,39.5293
4149671,8300.28,39.5293
4149672,8300.282000000001,39.5293
4149673,8300.284,39.5293
4149674,8300.286,39.5293
4149675,8300.288,39.5293
4149676,8300.29,39.5293
4149677,8300.292000000001,39.5293
4149678,8300.294,39.5293
4149679,8300.296,39.5293
4149680,8300.298,39.5293
4149681,8300.300000000001,39.5293
4149682,8300.302,39.5293
4149683,8300.304,39.1343
4149684,8300.306,39.5293
4149685,8300.308,39.5293
4149686,8300.310000000001,39.5293
4149687,8300.312,39.5293
4149688,8300.314,39.5293
4149689,8300.316,39.5293
4149690,8300.318000000001,39.5293
4149691,8300.32,39.5293
4149692,8300.322,39.5293
4149693,8300.324,39.5293
4149694,8300.326000000001,39.5293
4149695,8300.328,39.5293
4149696,8300.33,39.5293
4149697,8300.332,39.5293
4149698,8300.334,39.5293
4149699,8300.336000000001,39.5293
4149700,8300.338,39.1343
4149701,8300.34,39.5293
4149702,8300.342,39.5293
4149703,8300.344000000001,39.5293
4149704,8300.346,39.5293
4149705,8300.348,39.5293
4149706,8300.35,39.5293
4149707,8300.352,39.5293
4149708,8300.354000000001,39.5293
4149709,8300.356,39.5293
4149710,8300.358,39.5293
4149711,8300.36,39.5293
4149712,8300.362000000001,39.5293
4149713,8300.364,39.5293
4149714,8300.366,39.5293
4149715,8300.368,39.5293
4149716,8300.37,39.9242
4149717,8300.372000000001,39.9242
4149718,8300.374,39.9242
4149719,8300.376,39.9242
4149720,8300.378,39.9242
4149721,8300.380000000001,39.9242
4149722,8300.382,39.9242
4149723,8300.384,39.9242
4149724,8300.386,39.9242
4149725,8300.388,39.9242
4149726,8300.390000000001,39.9242
4149727,8300.392,39.9242
4149728,8300.394,39.9242
4149729,8300.396,39.9242
4149730,8300.398000000001,39.9242
4149731,8300.4,39.9242
4149732,8300.402,39.5293
4149733,8300.404,39.9242
4149734,8300.406,39.5293
4149735,8300.408000000001,39.9242
4149736,8300.41,39.9242
4149737,8300.412,39.9242
4149738,8300.414,39.9242
4149739,8300.416000000001,40.3192
4149740,8300.418,39.9242
4149741,8300.42,40.3192
4149742,8300.422,40.3192
4149743,8300.424,40.3192
4149744,8300.426000000001,40.7142
4149745,8300.428,40.7142
4149746,8300.43,40.7142
4149747,8300.432,41.1092
4149748,8300.434000000001,41.1092
4149749,8300.436,41.1092
4149750,8300.438,41.1092
4149751,8300.44,41.5042
4149752,8300.442000000001,41.5042
4149753,8300.444,41.5042
4149754,8300.446,41.5042
4149755,8300.448,41.8992
4149756,8300.45,41.8992
4149757,8300.452000000001,41.8992
4149758,8300.454,41.8992
4149759,8300.456,42.2941
4149760,8300.458,42.6891
4149761,8300.460000000001,42.6891
4149762,8300.462,42.6891
4149763,8300.464,42.6891
4149764,8300.466,42.6891
4149765,8300.468,42.6891
4149766,8300.470000000001,43.0841
4149767,8300.472,42.6891
4149768,8300.474,43.0841
4149769,8300.476,43.0841
4149770,8300.478000000001,43.0841
4149771,8300.48,43.4791
4149772,8300.482,43.4791
4149773,8300.484,43.4791
4149774,8300.486,43.4791
4149775,8300.488000000001,43.8741
4149776,8300.49,43.8741
4149777,8300.492,43.8741
4149778,8300.494,43.8741
4149779,8300.496000000001,43.8741
4149780,8300.498,44.269
4149781,8300.5,44.269
4149782,8300.502,44.269
4149783,8300.504,44.269
4149784,8300.506000000001,44.664
4149785,8300.508,44.269
4149786,8300.51,44.269
4149787,8300.512,44.664
4149788,8300.514000000001,44.269
4149789,8300.516,44.269
4149790,8300.518,44.269
4149791,8300.52,44.269
4149792,8300.522,44.269
4149793,8300.524000000001,44.269
4149794,8300.526,44.269
4149795,8300.528,44.269
4149796,8300.53,44.269
4149797,8300.532000000001,44.269
4149798,8300.534,44.269
4149799,8300.536,43.8741
4149800,8300.538,44.269
4149801,8300.54,43.8741
4149802,8300.542000000001,43.8741
4149803,8300.544,43.8741
4149804,8300.546,43.8741
4149805,8300.548,43.8741
4149806,8300.550000000001,43.4791
4149807,8300.552,43.4791
4149808,8300.554,43.4791
4149809,8300.556,43.4791
4149810,8300.558,43.4791
4149811,8300.560000000001,43.4791
4149812,8300.562,43.0841
4149813,8300.564,43.0841
4149814,8300.566,43.0841
4149815,8300.568000000001,43.0841
4149816,8300.57,43.0841
4149817,8300.572,42.6891
4149818,8300.574,42.6891
4149819,8300.576000000001,42.6891
4149820,8300.578,42.2941
4149821,8300.58,42.2941
4149822,8300.582,42.2941
4149823,8300.584,42.2941
4149824,8300.586000000001,41.8992
4149825,8300.588,42.2941
4149826,8300.59,42.2941
4149827,8300.592,41.8992
4149828,8300.594000000001,41.8992
4149829,8300.596,41.5042
4149830,8300.598,41.5042
4149831,8300.6,41.5042
4149832,8300.602,41.5042
4149833,8300.604000000001,41.5042
4149834,8300.606,41.5042
4149835,8300.608,41.5042
4149836,8300.61,41.5042
4149837,8300.612000000001,41.1092
4149838,8300.614,41.1092
4149839,8300.616,41.1092
4149840,8300.618,41.1092
4149841,8300.62,41.1092
4149842,8300.622000000001,41.1092
4149843,8300.624,41.1092
4149844,8300.626,41.1092
4149845,8300.628,41.1092
4149846,8300.630000000001,40.7142
4149847,8300.632,40.7142
4149848,8300.634,40.7142
4149849,8300.636,40.7142
4149850,8300.638,40.7142
4149851,8300.640000000001,40.3192
4149852,8300.642,40.7142
4149853,8300.644,40.3192
4149854,8300.646,40.7142
4149855,8300.648000000001,40.3192
4149856,8300.65,40.3192
4149857,8300.652,40.7142
4149858,8300.654,40.7142
4149859,8300.656,40.3192
4149860,8300.658000000001,40.3192
4149861,8300.66,40.3192
4149862,8300.662,40.3192
4149863,8300.664,40.3192
4149864,8300.666000000001,40.3192
4149865,8300.668,40.3192
4149866,8300.67,40.3192
4149867,8300.672,40.3192
4149868,8300.674,40.3192
4149869,8300.676000000001,40.3192
4149870,8300.678,39.9242
4149871,8300.68,40.3192
4149872,8300.682,40.3192
4149873,8300.684000000001,39.9242
4149874,8300.686,39.9242
4149875,8300.688,39.9242
4149876,8300.69,39.9242
4149877,8300.692000000001,39.9242
4149878,8300.694,39.9242
4149879,8300.696,39.9242
4149880,8300.698,39.9242
4149881,8300.7,39.9242
4149882,8300.702000000001,39.9242
4149883,8300.704,39.5293
4149884,8300.706,39.9242
4149885,8300.708,39.9242
4149886,8300.710000000001,39.9242
4149887,8300.712,39.9242
4149888,8300.714,39.9242
4149889,8300.716,39.9242
4149890,8300.718,40.3192
4149891,8300.720000000001,39.9242
4149892,8300.722,39.9242
4149893,8300.724,39.9242
4149894,8300.726,39.9242
4149895,8300.728000000001,39.9242
4149896,8300.73,39.5293
4149897,8300.732,39.5293
4149898,8300.734,39.5293
4149899,8300.736,39.9242
4149900,8300.738000000001,39.5293
4149901,8300.74,39.9242
4149902,8300.742,39.5293
4149903,8300.744,39.9242
4149904,8300.746000000001,39.5293
4149905,8300.748,39.5293
4149906,8300.75,39.5293
4149907,8300.752,39.5293
4149908,8300.754,39.9242
4149909,8300.756000000001,39.9242
4149910,8300.758,39.5293
4149911,8300.76,39.5293
4149912,8300.762,39.5293
4149913,8300.764000000001,39.5293
4149914,8300.766,39.5293
4149915,8300.768,39.5293
4149916,8300.77,39.9242
4149917,8300.772,39.9242
4149918,8300.774000000001,39.5293
4149919,8300.776,39.5293
4149920,8300.778,39.5293
4149921,8300.78,39.5293
4149922,8300.782000000001,39.5293
4149923,8300.784,39.5293
4149924,8300.786,39.5293
4149925,8300.788,39.5293
4149926,8300.79,39.5293
4149927,8300.792000000001,39.5293
4149928,8300.794,39.5293
4149929,8300.796,39.5293
4149930,8300.798,39.5293
4149931,8300.800000000001,39.5293
4149932,8300.802,39.5293
4149933,8300.804,39.5293
4149934,8300.806,39.5293
4149935,8300.808,39.5293
4149936,8300.810000000001,39.5293
4149937,8300.812,39.5293
4149938,8300.814,39.5293
4149939,8300.816,39.9242
4149940,8300.818000000001,39.5293
4149941,8300.82,39.5293
4149942,8300.822,39.5293
4149943,8300.824,39.5293
4149944,8300.826000000001,39.5293
4149945,8300.828,39.5293
4149946,8300.83,39.5293
4149947,8300.832,39.5293
4149948,8300.834,39.5293
4149949,8300.836000000001,39.5293
4149950,8300.838,39.5293
4149951,8300.84,39.9242
4149952,8300.842,39.5293
4149953,8300.844000000001,39.5293
4149954,8300.846,39.5293
4149955,8300.848,39.5293
4149956,8300.85,39.5293
4149957,8300.852,39.5293
4149958,8300.854000000001,39.5293
4149959,8300.856,39.5293
4149960,8300.858,39.5293
4149961,8300.86,39.5293
4149962,8300.862000000001,39.9242
4149963,8300.864,39.9242
4149964,8300.866,39.9242
4149965,8300.868,39.9242
4149966,8300.87,39.9242
4149967,8300.872000000001,39.9242
4149968,8300.874,39.5293
4149969,8300.876,39.9242
4149970,8300.878,39.5293
4149971,8300.880000000001,39.5293
4149972,8300.882,39.5293
4149973,8300.884,39.5293
4149974,8300.886,39.5293
4149975,8300.888,39.5293
4149976,8300.890000000001,39.5293
4149977,8300.892,39.5293
4149978,8300.894,39.5293
4149979,8300.896,39.5293
4149980,8300.898000000001,39.1343
4149981,8300.9,39.1343
4149982,8300.902,39.1343
4149983,8300.904,39.1343
4149984,8300.906,39.1343
4149985,8300.908000000001,39.1343
4149986,8300.91,38.7393
4149987,8300.912,39.1343
4149988,8300.914,39.1343
4149989,8300.916000000001,39.1343
4149990,8300.918,39.1343
4149991,8300.92,39.1343
4149992,8300.922,39.1343
4149993,8300.924,39.1343
4149994,8300.926000000001,39.1343
4149995,8300.928,39.1343
4149996,8300.93,39.1343
4149997,8300.932,39.1343
4149998,8300.934000000001,38.7393
4149999,8300.936,39.1343
4150000,8300.938,39.1343
4150001,8300.94,39.1343
4150002,8300.942000000001,39.1343
4150003,8300.944,39.1343
4150004,8300.946,39.1343
4150005,8300.948,39.1343
4150006,8300.95,39.1343
4150007,8300.952000000001,39.1343
4150008,8300.954,39.1343
4150009,8300.956,39.1343
4150010,8300.958,39.1343
4150011,8300.960000000001,39.1343
4150012,8300.962,39.1343
4150013,8300.964,39.1343
4150014,8300.966,39.1343
4150015,8300.968,38.7393
4150016,8300.970000000001,39.1343
4150017,8300.972,39.1343
4150018,8300.974,39.1343
4150019,8300.976,39.1343
4150020,8300.978000000001,39.1343
4150021,8300.98,39.1343
4150022,8300.982,38.7393
4150023,8300.984,38.7393
4150024,8300.986,38.7393
4150025,8300.988000000001,38.7393
4150026,8300.99,39.1343
4150027,8300.992,38.7393
4150028,8300.994,38.7393
4150029,8300.996000000001,38.7393
4150030,8300.998,38.7393
4150031,8301.0,38.3443
4150032,8301.002,38.7393
4150033,8301.004,38.7393
4150034,8301.006000000001,38.3443
4150035,8301.008,38.7393
4150036,8301.01,38.7393
4150037,8301.012,38.7393
4150038,8301.014000000001,38.7393
4150039,8301.016,38.7393
4150040,8301.018,38.7393
4150041,8301.02,38.7393
4150042,8301.022,38.7393
4150043,8301.024000000001,38.7393
4150044,8301.026,38.7393
4150045,8301.028,38.7393
4150046,8301.03,38.7393
4150047,8301.032000000001,38.7393
4150048,8301.034,38.7393
4150049,8301.036,38.3443
4150050,8301.038,38.7393
4150051,8301.04,38.7393
4150052,8301.042000000001,38.7393
4150053,8301.044,38.7393
4150054,8301.046,38.7393
4150055,8301.048,38.7393
4150056,8301.050000000001,38.7393
4150057,8301.052,38.7393
4150058,8301.054,38.3443
4150059,8301.056,38.3443
4150060,8301.058,38.3443
4150061,8301.060000000001,38.3443
4150062,8301.062,38.3443
4150063,8301.064,38.3443
4150064,8301.066,38.3443
4150065,8301.068000000001,38.3443
4150066,8301.07,38.3443
4150067,8301.072,38.3443
4150068,8301.074,38.3443
4150069,8301.076000000001,38.3443
4150070,8301.078,37.9493
4150071,8301.08,38.3443
4150072,8301.082,38.3443
4150073,8301.084,38.3443
4150074,8301.086000000001,38.3443
4150075,8301.088,38.3443
4150076,8301.09,38.3443
4150077,8301.092,38.3443
4150078,8301.094000000001,38.3443
4150079,8301.096,38.3443
4150080,8301.098,38.3443
4150081,8301.1,38.3443
4150082,8301.102,38.3443
4150083,8301.104000000001,38.3443
4150084,8301.106,38.3443
4150085,8301.108,38.3443
4150086,8301.11,38.3443
4150087,8301.112000000001,38.3443
4150088,8301.114,38.3443
4150089,8301.116,38.3443
4150090,8301.118,38.3443
4150091,8301.12,38.3443
4150092,8301.122000000001,38.3443
4150093,8301.124,38.3443
4150094,8301.126,38.3443
4150095,8301.128,38.3443
4150096,8301.130000000001,38.3443
4150097,8301.132,38.3443
4150098,8301.134,38.3443
4150099,8301.136,38.3443
4150100,8301.138,38.7393
4150101,8301.140000000001,38.7393
4150102,8301.142,38.7393
4150103,8301.144,38.7393
4150104,8301.146,38.7393
4150105,8301.148000000001,38.3443
4150106,8301.15,38.7393
4150107,8301.152,38.3443
4150108,8301.154,38.3443
4150109,8301.156,38.3443
4150110,8301.158000000001,38.3443
4150111,8301.16,38.3443
4150112,8301.162,38.3443
4150113,8301.164,38.3443
4150114,8301.166000000001,38.3443
4150115,8301.168,38.3443
4150116,8301.17,38.3443
4150117,8301.172,37.9493
4150118,8301.174,38.3443
4150119,8301.176000000001,38.3443
4150120,8301.178,38.3443
4150121,8301.18,37.9493
4150122,8301.182,38.3443
4150123,8301.184000000001,38.3443
4150124,8301.186,37.9493
4150125,8301.188,38.3443
4150126,8301.19,38.3443
4150127,8301.192000000001,38.3443
4150128,8301.194,38.3443
4150129,8301.196,38.3443
4150130,8301.198,38.3443
4150131,8301.2,38.3443
4150132,8301.202000000001,37.9493
4150133,8301.204,37.9493
4150134,8301.206,38.3443
4150135,8301.208,38.3443
4150136,8301.210000000001,38.3443
4150137,8301.212,37.9493
4150138,8301.214,38.3443
4150139,8301.216,37.9493
4150140,8301.218,38.3443
4150141,8301.220000000001,38.3443
4150142,8301.222,38.3443
4150143,8301.224,38.3443
4150144,8301.226,38.7393
4150145,8301.228000000001,38.3443
4150146,8301.23,38.7393
4150147,8301.232,38.3443
4150148,8301.234,38.3443
4150149,8301.236,38.7393
4150150,8301.238000000001,38.3443
4150151,8301.24,38.7393
4150152,8301.242,38.7393
4150153,8301.244,38.7393
4150154,8301.246000000001,38.7393
4150155,8301.248,39.1343
4150156,8301.25,38.7393
4150157,8301.252,39.1343
4150158,8301.254,39.1343
4150159,8301.256000000001,39.1343
4150160,8301.258,39.1343
4150161,8301.26,39.1343
4150162,8301.262,39.5293
4150163,8301.264000000001,39.5293
4150164,8301.266,39.5293
4150165,8301.268,39.1343
4150166,8301.27,39.9242
4150167,8301.272,39.9242
4150168,8301.274000000001,39.9242
4150169,8301.276,39.9242
4150170,8301.278,39.9242
4150171,8301.28,40.3192
4150172,8301.282000000001,40.3192
4150173,8301.284,40.3192
4150174,8301.286,40.7142
4150175,8301.288,40.7142
4150176,8301.29,40.7142
4150177,8301.292000000001,40.7142
4150178,8301.294,41.1092
4150179,8301.296,40.7142
4150180,8301.298,41.1092
4150181,8301.300000000001,41.5042
4150182,8301.302,41.5042
4150183,8301.304,41.5042
4150184,8301.306,41.5042
4150185,8301.308,41.5042
4150186,8301.310000000001,41.8992
4150187,8301.312,42.2941
4150188,8301.314,42.2941
4150189,8301.316,42.2941
4150190,8301.318000000001,42.2941
4150191,8301.32,42.2941
4150192,8301.322,42.2941
4150193,8301.324,42.6891
4150194,8301.326000000001,42.2941
4150195,8301.328,42.6891
4150196,8301.33,42.6891
4150197,8301.332,42.6891
4150198,8301.334,43.0841
4150199,8301.336000000001,43.0841
4150200,8301.338,43.0841
4150201,8301.34,43.4791
4150202,8301.342,43.4791
4150203,8301.344000000001,43.0841
4150204,8301.346,43.4791
4150205,8301.348,43.4791
4150206,8301.35,43.0841
4150207,8301.352,43.0841
4150208,8301.354000000001,43.0841
4150209,8301.356,43.0841
4150210,8301.358,43.0841
4150211,8301.36,43.0841
4150212,8301.362000000001,43.0841
4150213,8301.364,43.0841
4150214,8301.366,43.0841
4150215,8301.368,43.0841
4150216,8301.37,43.0841
4150217,8301.372000000001,43.0841
4150218,8301.374,43.0841
4150219,8301.376,43.0841
4150220,8301.378,43.0841
4150221,8301.380000000001,42.6891
4150222,8301.382,42.6891
4150223,8301.384,43.0841
4150224,8301.386,42.6891
4150225,8301.388,42.6891
4150226,8301.390000000001,42.2941
4150227,8301.392,42.2941
4150228,8301.394,42.2941
4150229,8301.396,42.2941
4150230,8301.398000000001,41.8992
4150231,8301.4,42.2941
4150232,8301.402,41.8992
4150233,8301.404,41.8992
4150234,8301.406,41.8992
4150235,8301.408000000001,41.8992
4150236,8301.41,41.8992
4150237,8301.412,41.5042
4150238,8301.414,41.8992
4150239,8301.416000000001,41.5042
